1	1	1	1	1	1	1	1	1	1	1	1	   00:00.000	 -0.205	 -0.260	 -0.055	  0.230	 -0.075	 -0.155	 -0.040	 -0.155	 -0.390	 -0.325	 -0.265	 -0.205	   00:00.002	 -0.260	 -0.305	 -0.045	  0.280	 -0.105	 -0.175	 -0.020	 -0.180	 -0.405	 -0.390	 -0.285	 -0.270	   00:00.004	 -0.240	 -0.325	 -0.085	  0.280	 -0.075	 -0.205	 -0.005	 -0.145	 -0.390	 -0.445	 -0.325	 -0.325	   00:00.006	 -0.315	 -0.335	 -0.020	  0.325	 -0.145	 -0.175	  0.095	 -0.105	 -0.245	 -0.410	 -0.435	 -0.395	   00:00.008	 -0.240	 -0.270	 -0.030	  0.255	 -0.105	 -0.150	  0.160	  0.080	  0.130	 -0.175	 -0.290	 -0.260	   00:00.010	 -0.120	 -0.120	 0.000	  0.120	 -0.060	 -0.060	  0.230	  0.230	  0.485	  0.160	 -0.075	 -0.045	   00:00.012	  0.060	  0.190	  0.130	 -0.125	 -0.035	  0.160	  0.275	  0.425	  0.830	  0.655	  0.370	  0.235	   00:00.014	  0.225	  0.480	  0.255	 -0.350	 -0.015	  0.365	  0.355	  0.690	  1.270	  1.200	  0.825	  0.635	   00:00.016	  0.495	  0.920	  0.425	 -0.705	  0.035	  0.670	  0.370	  0.710	  1.570	  1.705	  1.125	  0.900	   00:00.018	  0.690	  1.255	  0.565	 -0.970	  0.060	  0.910	  0.320	  0.785	  1.950	  2.145	  1.655	  1.260	   00:00.020	  0.890	  1.540	  0.650	 -1.215	  0.120	  1.095	  0.060	  0.455	  1.700	  2.190	  1.830	  1.435	   00:00.022	  1.025	  1.735	  0.710	 -1.380	  0.155	  1.220	 -0.240	 -0.005	  1.260	  1.945	  1.865	  1.560	   00:00.024	  0.885	  1.470	  0.585	 -1.175	  0.150	  1.025	 -0.535	 -0.570	  0.370	  1.305	  1.450	  1.345	   00:00.026	  0.760	  1.215	  0.455	 -0.985	  0.150	  0.835	 -0.825	 -1.065	 -0.395	  0.895	  1.105	  1.130	   00:00.028	  0.500	  0.790	  0.290	 -0.645	  0.105	  0.540	 -1.060	 -1.755	 -1.080	  0.325	  0.800	  0.820	   00:00.030	  0.335	  0.510	  0.175	 -0.420	  0.080	  0.340	 -1.355	 -2.300	 -1.755	 -0.240	  0.375	  0.475	   00:00.032	  0.060	  0.090	  0.030	 -0.075	  0.015	  0.060	 -1.525	 -2.430	 -2.000	 -0.615	 -0.070	  0.115	   00:00.034	 -0.055	 -0.205	 -0.150	  0.130	  0.045	 -0.175	 -1.350	 -2.230	 -1.950	 -1.000	 -0.400	 -0.220	   00:00.036	 -0.220	 -0.375	 -0.155	  0.295	 -0.030	 -0.265	 -0.900	 -1.660	 -1.460	 -0.995	 -0.470	 -0.265	   00:00.038	 -0.320	 -0.470	 -0.150	  0.395	 -0.085	 -0.310	 -0.555	 -1.190	 -1.100	 -0.920	 -0.505	 -0.325	   00:00.040	 -0.275	 -0.445	 -0.170	  0.360	 -0.050	 -0.305	 -0.315	 -0.720	 -0.700	 -0.750	 -0.420	 -0.310	   00:00.042	 -0.270	 -0.420	 -0.150	  0.345	 -0.060	 -0.285	 -0.070	 -0.285	 -0.400	 -0.520	 -0.345	 -0.290	   00:00.044	 -0.215	 -0.360	 -0.145	  0.285	 -0.035	 -0.250	  0.030	 -0.095	 -0.335	 -0.360	 -0.350	 -0.250	   00:00.046	 -0.215	 -0.310	 -0.095	  0.260	 -0.060	 -0.200	  0.050	 -0.020	 -0.280	 -0.315	 -0.285	 -0.245	   00:00.048	 -0.180	 -0.300	 -0.120	  0.240	 -0.030	 -0.210	  0.055	 -0.005	 -0.280	 -0.335	 -0.290	 -0.220	   00:00.050	 -0.195	 -0.275	 -0.080	  0.235	 -0.055	 -0.175	  0.045	  0.010	 -0.245	 -0.330	 -0.270	 -0.215	   00:00.052	 -0.195	 -0.315	 -0.120	  0.255	 -0.035	 -0.215	  0.060	 -0.005	 -0.260	 -0.330	 -0.285	 -0.220	   00:00.054	 -0.215	 -0.310	 -0.095	  0.260	 -0.060	 -0.200	  0.055	  0.010	 -0.240	 -0.320	 -0.255	 -0.215	   00:00.056	 -0.180	 -0.290	 -0.110	  0.235	 -0.035	 -0.200	  0.055	  0.025	 -0.245	 -0.310	 -0.255	 -0.230	   00:00.058	 -0.190	 -0.285	 -0.095	  0.235	 -0.045	 -0.190	  0.060	 0.000	 -0.240	 -0.325	 -0.260	 -0.215	   00:00.060	 -0.175	 -0.275	 -0.100	  0.225	 -0.035	 -0.185	  0.045	 0.000	 -0.230	 -0.320	 -0.285	 -0.220	   00:00.062	 -0.180	 -0.265	 -0.085	  0.220	 -0.045	 -0.175	  0.040	 0.000	 -0.235	 -0.305	 -0.255	 -0.210	   00:00.064	 -0.165	 -0.275	 -0.110	  0.220	 -0.025	 -0.190	  0.040	 0.000	 -0.230	 -0.315	 -0.245	 -0.210	   00:00.066	 -0.185	 -0.270	 -0.085	  0.225	 -0.050	 -0.175	  0.040	  0.010	 -0.225	 -0.310	 -0.265	 -0.210	   00:00.068	 -0.175	 -0.260	 -0.085	  0.215	 -0.045	 -0.170	  0.045	  0.005	 -0.215	 -0.280	 -0.250	 -0.205	   00:00.070	 -0.160	 -0.275	 -0.115	  0.215	 -0.020	 -0.195	  0.035	 -0.005	 -0.215	 -0.295	 -0.250	 -0.215	   00:00.072	 -0.165	 -0.265	 -0.100	  0.215	 -0.030	 -0.180	  0.050	  0.015	 -0.235	 -0.290	 -0.245	 -0.180	   00:00.074	 -0.190	 -0.250	 -0.060	  0.220	 -0.065	 -0.155	  0.040	 -0.005	 -0.210	 -0.295	 -0.245	 -0.215	   00:00.076	 -0.170	 -0.230	 -0.060	  0.200	 -0.055	 -0.145	  0.050	  0.015	 -0.205	 -0.265	 -0.225	 -0.185	   00:00.078	 -0.160	 -0.235	 -0.075	  0.195	 -0.040	 -0.155	  0.045	 0.000	 -0.215	 -0.275	 -0.230	 -0.200	   00:00.080	 -0.155	 -0.235	 -0.080	  0.195	 -0.035	 -0.155	  0.035	  0.020	 -0.195	 -0.285	 -0.225	 -0.170	   00:00.082	 -0.150	 -0.245	 -0.095	  0.195	 -0.025	 -0.170	  0.025	 0.000	 -0.210	 -0.270	 -0.255	 -0.185	   00:00.084	 -0.170	 -0.250	 -0.080	  0.210	 -0.045	 -0.165	  0.050	  0.015	 -0.210	 -0.270	 -0.205	 -0.185	   00:00.086	 -0.165	 -0.250	 -0.085	  0.205	 -0.040	 -0.165	  0.025	  0.010	 -0.185	 -0.250	 -0.215	 -0.185	   00:00.088	 -0.135	 -0.210	 -0.075	  0.170	 -0.030	 -0.140	  0.050	  0.020	 -0.145	 -0.235	 -0.205	 -0.175	   00:00.090	 -0.135	 -0.195	 -0.060	  0.165	 -0.035	 -0.125	  0.050	  0.005	 -0.115	 -0.200	 -0.235	 -0.160	   00:00.092	 -0.125	 -0.170	 -0.045	  0.145	 -0.040	 -0.105	  0.030	  0.015	 -0.045	 -0.190	 -0.210	 -0.125	   00:00.094	 -0.100	 -0.150	 -0.050	  0.125	 -0.025	 -0.100	  0.025	  0.040	 -0.035	 -0.150	 -0.160	 -0.135	   00:00.096	 -0.090	 -0.165	 -0.075	  0.125	 -0.005	 -0.120	  0.065	  0.020	 -0.025	 -0.115	 -0.205	 -0.145	   00:00.098	 -0.060	 -0.080	 -0.020	  0.070	 -0.020	 -0.050	  0.055	  0.045	 0.000	 -0.120	 -0.160	 -0.095	   00:00.100	 -0.055	 -0.095	 -0.040	  0.075	 -0.005	 -0.065	  0.070	  0.075	  0.045	 -0.070	 -0.135	 -0.090	   00:00.102	 -0.045	 -0.070	 -0.025	  0.055	 -0.010	 -0.045	  0.060	  0.095	  0.105	 -0.030	 -0.120	 -0.080	   00:00.104	  0.020	 -0.030	 -0.050	  0.005	  0.035	 -0.040	  0.110	  0.110	  0.130	 -0.025	 -0.120	 -0.070	   00:00.106	  0.020	  0.010	 -0.010	 -0.015	  0.015	 0.000	  0.075	  0.115	  0.170	  0.020	 -0.065	 -0.060	   00:00.108	  0.020	 0.000	 -0.020	 -0.010	  0.020	 -0.010	  0.075	  0.160	  0.220	  0.060	 -0.035	 -0.015	   00:00.110	  0.045	  0.045	 0.000	 -0.045	  0.020	  0.020	  0.075	  0.160	  0.235	  0.075	 -0.060	 -0.005	   00:00.112	  0.075	  0.070	 -0.005	 -0.070	  0.040	  0.030	  0.130	  0.180	  0.250	  0.085	 -0.020	  0.015	   00:00.114	  0.080	  0.075	 -0.005	 -0.075	  0.040	  0.035	  0.095	  0.165	  0.285	  0.140	 -0.025	  0.025	   00:00.116	  0.075	  0.080	  0.005	 -0.075	  0.035	  0.040	  0.105	  0.205	  0.350	  0.205	 0.000	  0.020	   00:00.118	  0.095	  0.120	  0.025	 -0.105	  0.035	  0.070	  0.085	  0.235	  0.390	  0.215	  0.065	  0.065	   00:00.120	  0.110	  0.125	  0.015	 -0.115	  0.045	  0.070	  0.135	  0.290	  0.445	  0.245	  0.080	  0.040	   00:00.122	  0.155	  0.160	  0.005	 -0.155	  0.075	  0.080	  0.145	  0.230	  0.495	  0.285	  0.050	  0.065	   00:00.124	  0.165	  0.175	  0.010	 -0.170	  0.075	  0.090	  0.135	  0.265	  0.515	  0.335	  0.070	  0.105	   00:00.126	  0.145	  0.180	  0.035	 -0.160	  0.055	  0.105	  0.140	  0.330	  0.530	  0.380	  0.150	  0.100	   00:00.128	  0.170	  0.200	  0.030	 -0.185	  0.070	  0.115	  0.125	  0.385	  0.580	  0.415	  0.170	  0.085	   00:00.130	  0.185	  0.245	  0.060	 -0.215	  0.060	  0.150	  0.140	  0.380	  0.590	  0.420	  0.210	  0.125	   00:00.132	  0.220	  0.265	  0.045	 -0.240	  0.085	  0.155	  0.160	  0.390	  0.595	  0.445	  0.195	  0.155	   00:00.134	  0.195	  0.285	  0.090	 -0.240	  0.050	  0.185	  0.165	  0.385	  0.635	  0.450	  0.190	  0.165	   00:00.136	  0.240	  0.290	  0.050	 -0.265	  0.095	  0.170	  0.165	  0.430	  0.675	  0.490	  0.220	  0.160	   00:00.138	  0.225	  0.280	  0.055	 -0.250	  0.085	  0.165	  0.150	  0.430	  0.710	  0.480	  0.265	  0.190	   00:00.140	  0.240	  0.320	  0.080	 -0.280	  0.080	  0.200	  0.175	  0.470	  0.730	  0.530	  0.260	  0.155	   00:00.142	  0.250	  0.345	  0.095	 -0.295	  0.075	  0.220	  0.140	  0.485	  0.720	  0.540	  0.285	  0.195	   00:00.144	  0.270	  0.360	  0.090	 -0.315	  0.090	  0.225	  0.165	  0.465	  0.750	  0.550	  0.270	  0.220	   00:00.146	  0.255	  0.375	  0.120	 -0.315	  0.065	  0.245	  0.140	  0.455	  0.770	  0.560	  0.270	  0.215	   00:00.148	  0.260	  0.350	  0.090	 -0.305	  0.085	  0.220	  0.155	  0.500	  0.780	  0.590	  0.320	  0.220	   00:00.150	  0.280	  0.385	  0.105	 -0.330	  0.085	  0.245	  0.140	  0.505	  0.785	  0.600	  0.335	  0.215	   00:00.152	  0.310	  0.395	  0.085	 -0.350	  0.110	  0.240	  0.195	  0.505	  0.830	  0.625	  0.330	  0.215	   00:00.154	  0.315	  0.375	  0.060	 -0.345	  0.125	  0.215	  0.210	  0.525	  0.845	  0.615	  0.320	  0.240	   00:00.156	  0.305	  0.370	  0.065	 -0.335	  0.120	  0.215	  0.200	  0.500	  0.880	  0.620	  0.320	  0.215	   00:00.158	  0.305	  0.390	  0.085	 -0.345	  0.110	  0.235	  0.190	  0.510	  0.860	  0.620	  0.295	  0.230	   00:00.160	  0.325	  0.420	  0.095	 -0.370	  0.115	  0.255	  0.175	  0.510	  0.875	  0.610	  0.330	  0.255	   00:00.162	  0.305	  0.395	  0.090	 -0.350	  0.105	  0.240	  0.185	  0.495	  0.840	  0.640	  0.325	  0.240	   00:00.164	  0.310	  0.395	  0.085	 -0.350	  0.110	  0.240	  0.190	  0.475	  0.830	  0.655	  0.320	  0.240	   00:00.166	  0.300	  0.410	  0.110	 -0.355	  0.095	  0.260	  0.200	  0.500	  0.845	  0.670	  0.295	  0.255	   00:00.168	  0.315	  0.410	  0.095	 -0.360	  0.110	  0.250	  0.180	  0.485	  0.850	  0.635	  0.295	  0.245	   00:00.170	  0.305	  0.380	  0.075	 -0.340	  0.115	  0.225	  0.205	  0.500	  0.870	  0.630	  0.330	  0.210	   00:00.172	  0.290	  0.355	  0.065	 -0.320	  0.110	  0.210	  0.195	  0.525	  0.865	  0.620	  0.340	  0.210	   00:00.174	  0.310	  0.360	  0.050	 -0.335	  0.130	  0.205	  0.210	  0.550	  0.865	  0.610	  0.360	  0.225	   00:00.176	  0.305	  0.360	  0.055	 -0.330	  0.125	  0.205	  0.205	  0.520	  0.825	  0.610	  0.340	  0.220	   00:00.178	  0.310	  0.375	  0.065	 -0.340	  0.120	  0.220	  0.195	  0.490	  0.805	  0.610	  0.310	  0.225	   00:00.180	  0.290	  0.355	  0.065	 -0.320	  0.110	  0.210	  0.205	  0.500	  0.740	  0.610	  0.290	  0.190	   00:00.182	  0.290	  0.360	  0.070	 -0.325	  0.110	  0.215	  0.185	  0.525	  0.760	  0.580	  0.325	  0.200	   00:00.184	  0.285	  0.340	  0.055	 -0.310	  0.115	  0.195	  0.185	  0.515	  0.700	  0.560	  0.320	  0.185	   00:00.186	  0.265	  0.360	  0.095	 -0.310	  0.085	  0.225	  0.180	  0.500	  0.675	  0.535	  0.315	  0.220	   00:00.188	  0.235	  0.330	  0.095	 -0.280	  0.070	  0.210	  0.165	  0.475	  0.650	  0.470	  0.275	  0.220	   00:00.190	  0.230	  0.305	  0.075	 -0.265	  0.075	  0.190	  0.155	  0.470	  0.640	  0.490	  0.300	  0.175	   00:00.192	  0.230	  0.310	  0.080	 -0.270	  0.075	  0.195	  0.165	  0.460	  0.565	  0.430	  0.265	  0.155	   00:00.194	  0.235	  0.305	  0.070	 -0.270	  0.080	  0.185	  0.170	  0.415	  0.555	  0.400	  0.235	  0.170	   00:00.196	  0.190	  0.255	  0.065	 -0.220	  0.060	  0.160	  0.125	  0.430	  0.535	  0.385	  0.235	  0.150	   00:00.198	  0.150	  0.220	  0.070	 -0.185	  0.040	  0.145	  0.120	  0.425	  0.515	  0.335	  0.250	  0.130	   00:00.200	  0.155	  0.230	  0.075	 -0.190	  0.040	  0.150	  0.130	  0.400	  0.470	  0.280	  0.200	  0.125	   00:00.202	  0.140	  0.150	  0.010	 -0.145	  0.065	  0.080	  0.120	  0.385	  0.430	  0.245	  0.200	  0.090	   00:00.204	  0.100	  0.145	  0.045	 -0.120	  0.025	  0.095	  0.105	  0.375	  0.405	  0.225	  0.190	  0.080	   00:00.206	  0.090	  0.125	  0.035	 -0.105	  0.025	  0.080	  0.120	  0.365	  0.365	  0.230	  0.175	  0.085	   00:00.208	  0.095	  0.135	  0.040	 -0.115	  0.025	  0.085	  0.120	  0.335	  0.305	  0.165	  0.120	  0.065	   00:00.210	  0.075	  0.080	  0.005	 -0.075	  0.035	  0.040	  0.120	  0.320	  0.260	  0.140	  0.120	  0.020	   00:00.212	  0.030	  0.040	  0.010	 -0.035	  0.010	  0.025	  0.060	  0.265	  0.210	  0.125	  0.075	 0.000	   00:00.214	  0.005	 0.000	 -0.005	 0.000	  0.005	 0.000	  0.080	  0.220	  0.160	  0.090	  0.045	 -0.030	   00:00.216	 -0.005	 0.000	  0.005	 0.000	 -0.005	 0.000	  0.070	  0.185	  0.095	 0.000	 0.000	 -0.020	   00:00.218	 -0.040	 -0.045	 -0.005	  0.040	 -0.015	 -0.025	  0.050	  0.165	  0.075	 -0.060	 -0.010	 -0.030	   00:00.220	 -0.030	 -0.040	 -0.010	  0.035	 -0.010	 -0.025	  0.015	  0.160	  0.025	 -0.080	 -0.040	 -0.035	   00:00.222	 -0.025	 -0.075	 -0.050	  0.050	  0.010	 -0.060	  0.050	  0.130	  0.025	 -0.070	  0.015	 -0.080	   00:00.224	  0.005	 0.000	 -0.005	 0.000	  0.005	 0.000	  0.090	  0.100	 -0.025	 -0.045	  0.005	 -0.060	   00:00.226	  0.005	  0.005	 0.000	 -0.005	 0.000	 0.000	  0.075	  0.130	 -0.015	 -0.045	  0.005	 -0.015	   00:00.228	  0.020	  0.025	  0.005	 -0.020	  0.005	  0.015	  0.075	  0.135	  0.035	 -0.050	 0.000	 -0.005	   00:00.230	  0.040	  0.090	  0.050	 -0.065	 -0.005	  0.070	  0.060	  0.165	  0.015	 -0.025	  0.025	  0.005	   00:00.232	  0.030	  0.065	  0.035	 -0.045	 0.000	  0.050	  0.060	  0.180	  0.020	 -0.025	  0.050	  0.020	   00:00.234	  0.060	  0.085	  0.025	 -0.070	  0.015	  0.055	  0.075	  0.170	  0.015	 -0.020	  0.045	  0.015	   00:00.236	  0.100	  0.080	 -0.020	 -0.090	  0.060	  0.030	  0.110	  0.180	  0.005	 -0.005	  0.050	  0.025	   00:00.238	  0.075	  0.075	 0.000	 -0.075	  0.035	  0.035	  0.120	  0.165	  0.025	 -0.025	  0.025	  0.030	   00:00.240	  0.090	  0.090	 0.000	 -0.090	  0.045	  0.045	  0.115	  0.200	  0.015	 -0.010	  0.025	  0.010	   00:00.242	  0.085	  0.075	 -0.010	 -0.080	  0.045	  0.030	  0.120	  0.145	  0.020	 -0.025	  0.050	  0.025	   00:00.244	  0.085	  0.085	 0.000	 -0.085	  0.040	  0.040	  0.095	  0.185	  0.020	 -0.005	  0.025	  0.025	   00:00.246	  0.065	  0.065	 0.000	 -0.065	  0.030	  0.030	  0.125	  0.155	  0.015	 -0.025	  0.040	  0.015	   00:00.248	  0.080	  0.075	 -0.005	 -0.075	  0.040	  0.035	  0.125	  0.190	  0.010	 -0.015	  0.045	  0.035	   00:00.250	  0.075	  0.070	 -0.005	 -0.070	  0.040	  0.030	  0.110	  0.165	  0.010	 -0.025	  0.030	  0.010	   00:00.252	  0.065	  0.050	 -0.015	 -0.055	  0.040	  0.015	  0.085	  0.150	  0.025	 -0.010	  0.045	  0.020	   00:00.254	  0.040	  0.065	  0.025	 -0.050	  0.005	  0.045	  0.080	  0.195	  0.015	 -0.025	  0.050	  0.030	   00:00.256	  0.015	  0.030	  0.015	 -0.020	 0.000	  0.020	  0.080	  0.150	  0.020	 0.000	  0.065	  0.005	   00:00.258	  0.025	  0.010	 -0.015	 -0.015	  0.020	 0.000	  0.075	  0.130	 0.000	 -0.015	  0.050	 -0.005	   00:00.260	  0.025	  0.015	 -0.010	 -0.020	  0.015	 0.000	  0.070	  0.130	 -0.025	 -0.065	 0.000	 -0.015	   00:00.262	 -0.020	 -0.010	  0.010	  0.015	 -0.015	 0.000	  0.060	  0.110	 0.000	 -0.060	 -0.025	 -0.020	   00:00.264	 -0.025	 -0.030	 -0.005	  0.025	 -0.010	 -0.015	  0.050	  0.100	 -0.020	 -0.105	 -0.025	 -0.055	   00:00.266	 -0.065	 -0.065	 0.000	  0.065	 -0.030	 -0.030	  0.040	  0.075	 -0.050	 -0.080	 -0.030	 -0.070	   00:00.268	 -0.070	 -0.095	 -0.025	  0.080	 -0.020	 -0.060	  0.050	  0.035	 -0.075	 -0.120	 -0.045	 -0.110	   00:00.270	 -0.095	 -0.115	 -0.020	  0.105	 -0.035	 -0.065	  0.020	  0.055	 -0.110	 -0.165	 -0.095	 -0.120	   00:00.272	 -0.125	 -0.170	 -0.045	  0.145	 -0.040	 -0.105	  0.025	  0.015	 -0.100	 -0.165	 -0.095	 -0.090	   00:00.274	 -0.115	 -0.185	 -0.070	  0.150	 -0.020	 -0.125	  0.005	  0.005	 -0.165	 -0.185	 -0.110	 -0.145	   00:00.276	 -0.140	 -0.205	 -0.065	  0.170	 -0.035	 -0.135	  0.010	 -0.020	 -0.160	 -0.240	 -0.160	 -0.160	   00:00.278	 -0.145	 -0.225	 -0.080	  0.185	 -0.030	 -0.150	  0.020	 -0.010	 -0.215	 -0.275	 -0.195	 -0.170	   00:00.280	 -0.160	 -0.220	 -0.060	  0.190	 -0.050	 -0.140	  0.025	 -0.025	 -0.225	 -0.245	 -0.200	 -0.170	   00:00.282	 -0.130	 -0.240	 -0.110	  0.185	 -0.010	 -0.175	  0.010	 -0.020	 -0.220	 -0.255	 -0.220	 -0.165	   00:00.284	 -0.165	 -0.240	 -0.075	  0.200	 -0.045	 -0.155	  0.015	 -0.035	 -0.250	 -0.280	 -0.220	 -0.170	   00:00.286	 -0.160	 -0.235	 -0.075	  0.195	 -0.040	 -0.155	  0.020	 -0.025	 -0.230	 -0.255	 -0.190	 -0.170	   00:00.288	 -0.135	 -0.215	 -0.080	  0.175	 -0.025	 -0.145	  0.010	 -0.015	 -0.230	 -0.245	 -0.195	 -0.175	   00:00.290	 -0.140	 -0.215	 -0.075	  0.175	 -0.030	 -0.145	  0.010	 -0.020	 -0.225	 -0.250	 -0.195	 -0.190	   00:00.292	 -0.160	 -0.220	 -0.060	  0.190	 -0.050	 -0.140	  0.020	 -0.015	 -0.240	 -0.260	 -0.210	 -0.160	   00:00.294	 -0.150	 -0.215	 -0.065	  0.180	 -0.040	 -0.140	  0.010	 -0.040	 -0.225	 -0.265	 -0.220	 -0.165	   00:00.296	 -0.135	 -0.215	 -0.080	  0.175	 -0.025	 -0.145	 0.000	 -0.030	 -0.240	 -0.285	 -0.215	 -0.170	   00:00.298	 -0.150	 -0.215	 -0.065	  0.180	 -0.040	 -0.140	  0.015	 -0.035	 -0.225	 -0.280	 -0.210	 -0.190	   00:00.300	 -0.160	 -0.235	 -0.075	  0.195	 -0.040	 -0.155	  0.025	 -0.010	 -0.245	 -0.250	 -0.190	 -0.155	   00:00.302	 -0.140	 -0.205	 -0.065	  0.170	 -0.035	 -0.135	  0.010	 -0.020	 -0.230	 -0.280	 -0.200	 -0.175	   00:00.304	 -0.150	 -0.225	 -0.075	  0.185	 -0.035	 -0.150	  0.025	 -0.010	 -0.235	 -0.265	 -0.210	 -0.180	   00:00.306	 -0.165	 -0.215	 -0.050	  0.190	 -0.055	 -0.130	  0.020	 -0.040	 -0.235	 -0.270	 -0.215	 -0.175	   00:00.308	 -0.140	 -0.215	 -0.075	  0.175	 -0.030	 -0.145	 0.000	 -0.025	 -0.220	 -0.250	 -0.200	 -0.170	   00:00.310	 -0.170	 -0.230	 -0.060	  0.200	 -0.055	 -0.145	  0.020	 -0.020	 -0.240	 -0.260	 -0.215	 -0.185	   00:00.312	 -0.150	 -0.210	 -0.060	  0.180	 -0.045	 -0.135	  0.015	 -0.035	 -0.235	 -0.275	 -0.215	 -0.170	   00:00.314	 -0.150	 -0.220	 -0.070	  0.185	 -0.040	 -0.145	  0.025	 -0.025	 -0.230	 -0.265	 -0.220	 -0.175	   00:00.316	 -0.150	 -0.225	 -0.075	  0.185	 -0.035	 -0.150	  0.020	 -0.020	 -0.240	 -0.275	 -0.215	 -0.165	   00:00.318	 -0.150	 -0.225	 -0.075	  0.185	 -0.035	 -0.150	  0.005	 -0.020	 -0.225	 -0.265	 -0.195	 -0.175	   00:00.320	 -0.140	 -0.245	 -0.105	  0.190	 -0.015	 -0.175	  0.025	 -0.010	 -0.220	 -0.240	 -0.200	 -0.175	   00:00.322	 -0.145	 -0.210	 -0.065	  0.175	 -0.040	 -0.135	  0.020	 -0.025	 -0.220	 -0.265	 -0.190	 -0.170	   00:00.324	 -0.145	 -0.230	 -0.085	  0.185	 -0.030	 -0.155	  0.020	 -0.025	 -0.215	 -0.260	 -0.220	 -0.180	   00:00.326	 -0.150	 -0.230	 -0.080	  0.190	 -0.035	 -0.155	  0.015	 -0.025	 -0.230	 -0.265	 -0.225	 -0.170	   00:00.328	 -0.180	 -0.250	 -0.070	  0.215	 -0.055	 -0.160	  0.020	 -0.040	 -0.275	 -0.280	 -0.255	 -0.195	   00:00.330	 -0.200	 -0.280	 -0.080	  0.240	 -0.060	 -0.180	  0.020	 -0.065	 -0.330	 -0.335	 -0.280	 -0.250	   00:00.332	 -0.260	 -0.335	 -0.075	  0.295	 -0.090	 -0.205	  0.030	 -0.070	 -0.355	 -0.400	 -0.290	 -0.315	   00:00.334	 -0.270	 -0.360	 -0.090	  0.315	 -0.090	 -0.225	  0.100	 -0.035	 -0.280	 -0.470	 -0.425	 -0.365	   00:00.336	 -0.320	 -0.365	 -0.045	  0.340	 -0.135	 -0.205	  0.160	  0.060	 -0.075	 -0.320	 -0.430	 -0.415	   00:00.338	 -0.170	 -0.215	 -0.045	  0.190	 -0.060	 -0.130	  0.255	  0.280	  0.390	 -0.030	 -0.195	 -0.165	   00:00.340	 -0.040	  0.020	  0.060	  0.010	 -0.050	  0.040	  0.315	  0.435	  0.715	  0.380	  0.055	  0.020	   00:00.342	  0.155	  0.345	  0.190	 -0.250	 -0.015	  0.265	  0.375	  0.715	  1.205	  0.965	  0.685	  0.445	   00:00.344	  0.350	  0.640	  0.290	 -0.495	  0.030	  0.465	  0.440	  0.815	  1.445	  1.390	  0.865	  0.680	   00:00.346	  0.605	  1.125	  0.520	 -0.865	  0.040	  0.820	  0.430	  0.895	  1.925	  2.045	  1.440	  1.065	   00:00.348	  0.770	  1.365	  0.595	 -1.065	  0.085	  0.980	  0.300	  0.805	  2.010	  2.215	  1.735	  1.315	   00:00.350	  1.015	  1.710	  0.695	 -1.360	  0.160	  1.200	 -0.050	  0.335	  1.625	  2.230	  1.945	  1.540	   00:00.352	  1.030	  1.695	  0.665	 -1.360	  0.180	  1.180	 -0.255	 -0.095	  1.080	  1.730	  1.755	  1.540	   00:00.354	  0.850	  1.405	  0.555	 -1.125	  0.145	  0.980	 -0.635	 -0.710	  0.055	  1.185	  1.330	  1.225	   00:00.356	  0.690	  1.120	  0.430	 -0.905	  0.130	  0.775	 -0.865	 -1.140	 -0.460	  0.855	  1.085	  1.115	   00:00.358	  0.460	  0.720	  0.260	 -0.590	  0.100	  0.490	 -1.155	 -1.995	 -1.320	  0.125	  0.680	  0.685	   00:00.360	  0.270	  0.445	  0.175	 -0.355	  0.045	  0.310	 -1.435	 -2.275	 -1.745	 -0.235	  0.290	  0.450	   00:00.362	  0.045	  0.005	 -0.040	 -0.025	  0.040	 -0.015	 -1.475	 -2.335	 -1.935	 -0.720	 -0.135	 -0.050	   00:00.364	 -0.030	 -0.165	 -0.135	  0.095	  0.050	 -0.150	 -1.130	 -1.955	 -1.635	 -0.905	 -0.350	 -0.150	   00:00.366	 -0.230	 -0.340	 -0.110	  0.285	 -0.060	 -0.225	 -0.730	 -1.390	 -1.190	 -0.850	 -0.380	 -0.235	   00:00.368	 -0.235	 -0.370	 -0.135	  0.300	 -0.050	 -0.250	 -0.465	 -0.940	 -0.860	 -0.745	 -0.380	 -0.260	   00:00.370	 -0.230	 -0.325	 -0.095	  0.275	 -0.065	 -0.210	 -0.210	 -0.490	 -0.455	 -0.555	 -0.270	 -0.240	   00:00.372	 -0.210	 -0.320	 -0.110	  0.265	 -0.050	 -0.215	 -0.015	 -0.210	 -0.330	 -0.365	 -0.280	 -0.185	   00:00.374	 -0.165	 -0.265	 -0.100	  0.215	 -0.030	 -0.180	  0.025	 -0.045	 -0.255	 -0.245	 -0.215	 -0.170	   00:00.376	 -0.165	 -0.235	 -0.070	  0.200	 -0.045	 -0.150	  0.015	 -0.050	 -0.265	 -0.280	 -0.235	 -0.195	   00:00.378	 -0.150	 -0.245	 -0.095	  0.195	 -0.025	 -0.170	  0.015	 0.000	 -0.220	 -0.245	 -0.200	 -0.170	   00:00.380	 -0.135	 -0.220	 -0.085	  0.175	 -0.025	 -0.150	  0.020	 -0.030	 -0.220	 -0.270	 -0.210	 -0.180	   00:00.382	 -0.155	 -0.220	 -0.065	  0.185	 -0.045	 -0.140	  0.020	 -0.015	 -0.225	 -0.265	 -0.210	 -0.190	   00:00.384	 -0.160	 -0.240	 -0.080	  0.200	 -0.040	 -0.160	  0.020	 -0.015	 -0.215	 -0.260	 -0.185	 -0.160	   00:00.386	 -0.155	 -0.230	 -0.075	  0.190	 -0.040	 -0.150	  0.030	 -0.020	 -0.210	 -0.265	 -0.210	 -0.175	   00:00.388	 -0.160	 -0.240	 -0.080	  0.200	 -0.040	 -0.160	  0.025	 -0.010	 -0.230	 -0.260	 -0.220	 -0.170	   00:00.390	 -0.155	 -0.205	 -0.050	  0.180	 -0.050	 -0.125	  0.010	 -0.030	 -0.230	 -0.265	 -0.215	 -0.170	   00:00.392	 -0.140	 -0.225	 -0.085	  0.180	 -0.025	 -0.155	  0.015	 -0.010	 -0.220	 -0.255	 -0.205	 -0.180	   00:00.394	 -0.155	 -0.220	 -0.065	  0.185	 -0.045	 -0.140	  0.015	 -0.015	 -0.215	 -0.255	 -0.195	 -0.175	   00:00.396	 -0.155	 -0.220	 -0.065	  0.185	 -0.045	 -0.140	  0.020	 -0.015	 -0.225	 -0.250	 -0.205	 -0.180	   00:00.398	 -0.140	 -0.220	 -0.080	  0.180	 -0.030	 -0.150	  0.010	 -0.030	 -0.225	 -0.280	 -0.210	 -0.180	   00:00.400	 -0.150	 -0.210	 -0.060	  0.180	 -0.045	 -0.135	  0.010	 -0.045	 -0.245	 -0.265	 -0.205	 -0.165	   00:00.402	 -0.140	 -0.210	 -0.070	  0.175	 -0.035	 -0.140	  0.020	 -0.020	 -0.230	 -0.265	 -0.230	 -0.170	   00:00.404	 -0.160	 -0.225	 -0.065	  0.190	 -0.045	 -0.145	  0.015	 -0.020	 -0.215	 -0.255	 -0.195	 -0.190	   00:00.406	 -0.130	 -0.215	 -0.085	  0.170	 -0.020	 -0.150	  0.025	 -0.015	 -0.225	 -0.250	 -0.180	 -0.155	   00:00.408	 -0.160	 -0.225	 -0.065	  0.190	 -0.045	 -0.145	  0.035	 -0.025	 -0.215	 -0.250	 -0.210	 -0.175	   00:00.410	 -0.130	 -0.200	 -0.070	  0.165	 -0.030	 -0.135	  0.005	 -0.020	 -0.235	 -0.260	 -0.215	 -0.175	   00:00.412	 -0.150	 -0.220	 -0.070	  0.185	 -0.040	 -0.145	  0.040	 -0.015	 -0.215	 -0.250	 -0.195	 -0.160	   00:00.414	 -0.150	 -0.220	 -0.070	  0.185	 -0.040	 -0.145	  0.025	 -0.015	 -0.225	 -0.260	 -0.200	 -0.190	   00:00.416	 -0.145	 -0.215	 -0.070	  0.180	 -0.035	 -0.140	  0.035	 -0.005	 -0.165	 -0.245	 -0.180	 -0.160	   00:00.418	 -0.135	 -0.215	 -0.080	  0.175	 -0.025	 -0.145	  0.035	 -0.015	 -0.165	 -0.255	 -0.205	 -0.170	   00:00.420	 -0.140	 -0.195	 -0.055	  0.165	 -0.040	 -0.125	  0.020	 -0.015	 -0.105	 -0.200	 -0.215	 -0.130	   00:00.422	 -0.115	 -0.155	 -0.040	  0.135	 -0.035	 -0.095	  0.020	  0.015	 -0.060	 -0.205	 -0.165	 -0.125	   00:00.424	 -0.095	 -0.155	 -0.060	  0.125	 -0.015	 -0.105	  0.050	 0.000	 -0.050	 -0.145	 -0.170	 -0.145	   00:00.426	 -0.075	 -0.135	 -0.060	  0.105	 -0.005	 -0.095	  0.055	  0.010	 -0.025	 -0.120	 -0.175	 -0.090	   00:00.428	 -0.070	 -0.115	 -0.045	  0.090	 -0.010	 -0.080	  0.050	  0.055	 -0.020	 -0.090	 -0.140	 -0.100	   00:00.430	 -0.045	 -0.095	 -0.050	  0.070	 0.000	 -0.070	  0.065	  0.055	  0.050	 -0.055	 -0.135	 -0.075	   00:00.432	 -0.030	 -0.035	 -0.005	  0.030	 -0.010	 -0.020	  0.065	  0.070	  0.075	 -0.050	 -0.135	 -0.090	   00:00.434	  0.005	 -0.015	 -0.020	  0.005	  0.010	 -0.015	  0.080	  0.085	  0.135	 -0.030	 -0.085	 -0.060	   00:00.436	 -0.005	 -0.030	 -0.025	  0.015	  0.010	 -0.025	  0.060	  0.120	  0.165	  0.020	 -0.065	 -0.025	   00:00.438	  0.010	  0.005	 -0.005	 -0.005	  0.005	 0.000	  0.080	  0.135	  0.195	  0.085	 -0.045	 -0.015	   00:00.440	  0.050	  0.030	 -0.020	 -0.040	  0.035	  0.005	  0.115	  0.145	  0.210	  0.065	 -0.045	  0.010	   00:00.442	  0.075	  0.080	  0.005	 -0.075	  0.035	  0.040	  0.100	  0.155	  0.260	  0.085	 -0.010	  0.010	   00:00.444	  0.075	  0.075	 0.000	 -0.075	  0.035	  0.035	  0.080	  0.150	  0.290	  0.155	 -0.040	  0.005	   00:00.446	  0.055	  0.080	  0.025	 -0.065	  0.015	  0.050	  0.085	  0.190	  0.340	  0.185	  0.015	  0.030	   00:00.448	  0.110	  0.140	  0.030	 -0.125	  0.040	  0.085	  0.085	  0.240	  0.385	  0.200	  0.045	  0.040	   00:00.450	  0.145	  0.135	 -0.010	 -0.140	  0.075	  0.060	  0.130	  0.260	  0.450	  0.245	  0.055	  0.045	   00:00.452	  0.125	  0.160	  0.035	 -0.140	  0.045	  0.095	  0.145	  0.230	  0.480	  0.295	  0.050	  0.095	   00:00.454	  0.190	  0.200	  0.010	 -0.195	  0.090	  0.105	  0.130	  0.295	  0.505	  0.345	  0.085	  0.095	   00:00.456	  0.170	  0.190	  0.020	 -0.180	  0.075	  0.105	  0.135	  0.355	  0.540	  0.415	  0.165	  0.090	   00:00.458	  0.175	  0.225	  0.050	 -0.200	  0.060	  0.135	  0.125	  0.385	  0.585	  0.395	  0.185	  0.115	   00:00.460	  0.205	  0.250	  0.045	 -0.225	  0.080	  0.145	  0.155	  0.355	  0.590	  0.425	  0.175	  0.125	   00:00.462	  0.220	  0.295	  0.075	 -0.255	  0.070	  0.185	  0.150	  0.365	  0.600	  0.420	  0.165	  0.160	   00:00.464	  0.215	  0.305	  0.090	 -0.260	  0.060	  0.195	  0.155	  0.400	  0.655	  0.465	  0.195	  0.165	   00:00.466	  0.230	  0.280	  0.050	 -0.255	  0.090	  0.165	  0.160	  0.425	  0.650	  0.465	  0.230	  0.160	   00:00.468	  0.230	  0.310	  0.080	 -0.270	  0.075	  0.195	  0.145	  0.420	  0.720	  0.480	  0.235	  0.160	   00:00.470	  0.260	  0.325	  0.065	 -0.290	  0.095	  0.195	  0.175	  0.460	  0.725	  0.540	  0.280	  0.185	   00:00.472	  0.240	  0.340	  0.100	 -0.290	  0.070	  0.220	  0.135	  0.460	  0.710	  0.520	  0.270	  0.205	   00:00.474	  0.250	  0.365	  0.115	 -0.305	  0.065	  0.240	  0.145	  0.455	  0.760	  0.570	  0.275	  0.225	   00:00.476	  0.270	  0.370	  0.100	 -0.320	  0.085	  0.235	  0.140	  0.455	  0.770	  0.560	  0.280	  0.210	   00:00.478	  0.260	  0.385	  0.125	 -0.320	  0.065	  0.255	  0.150	  0.515	  0.770	  0.575	  0.325	  0.200	   00:00.480	  0.290	  0.385	  0.095	 -0.335	  0.095	  0.240	  0.175	  0.515	  0.800	  0.615	  0.325	  0.215	   00:00.482	  0.305	  0.365	  0.060	 -0.335	  0.120	  0.210	  0.185	  0.500	  0.810	  0.605	  0.315	  0.195	   00:00.484	  0.315	  0.400	  0.085	 -0.355	  0.115	  0.240	  0.200	  0.485	  0.850	  0.615	  0.300	  0.215	   00:00.486	  0.305	  0.360	  0.055	 -0.330	  0.125	  0.205	  0.175	  0.495	  0.850	  0.605	  0.310	  0.205	   00:00.488	  0.325	  0.420	  0.095	 -0.370	  0.115	  0.255	  0.175	  0.480	  0.845	  0.605	  0.310	  0.230	   00:00.490	  0.320	  0.405	  0.085	 -0.360	  0.115	  0.245	  0.175	  0.505	  0.845	  0.620	  0.335	  0.235	   00:00.492	  0.300	  0.420	  0.120	 -0.360	  0.090	  0.270	  0.215	  0.495	  0.830	  0.645	  0.315	  0.235	   00:00.494	  0.305	  0.425	  0.120	 -0.365	  0.090	  0.270	  0.185	  0.485	  0.855	  0.640	  0.290	  0.245	   00:00.496	  0.310	  0.390	  0.080	 -0.350	  0.115	  0.235	  0.185	  0.495	  0.815	  0.650	  0.310	  0.240	   00:00.498	  0.315	  0.405	  0.090	 -0.360	  0.110	  0.245	  0.165	  0.485	  0.840	  0.640	  0.325	  0.225	   00:00.500	  0.300	  0.360	  0.060	 -0.330	  0.120	  0.210	  0.205	  0.520	  0.835	  0.625	  0.320	  0.200	   00:00.502	  0.335	  0.370	  0.035	 -0.350	  0.150	  0.200	  0.185	  0.535	  0.860	  0.615	  0.340	  0.195	   00:00.504	  0.310	  0.370	  0.060	 -0.340	  0.125	  0.215	  0.180	  0.530	  0.835	  0.605	  0.330	  0.210	   00:00.506	  0.315	  0.370	  0.055	 -0.340	  0.130	  0.210	  0.190	  0.500	  0.790	  0.600	  0.305	  0.210	   00:00.508	  0.280	  0.355	  0.075	 -0.315	  0.100	  0.215	  0.210	  0.485	  0.795	  0.605	  0.315	  0.225	   00:00.510	  0.305	  0.375	  0.070	 -0.340	  0.115	  0.220	  0.170	  0.505	  0.745	  0.585	  0.335	  0.180	   00:00.512	  0.300	  0.360	  0.060	 -0.330	  0.120	  0.210	  0.200	  0.490	  0.725	  0.565	  0.320	  0.205	   00:00.514	  0.265	  0.360	  0.095	 -0.310	  0.085	  0.225	  0.180	  0.510	  0.680	  0.550	  0.320	  0.210	   00:00.516	  0.235	  0.320	  0.085	 -0.275	  0.075	  0.200	  0.150	  0.470	  0.640	  0.490	  0.295	  0.205	   00:00.518	  0.235	  0.315	  0.080	 -0.275	  0.075	  0.195	  0.150	  0.460	  0.635	  0.450	  0.270	  0.190	   00:00.520	  0.225	  0.275	  0.050	 -0.250	  0.085	  0.160	  0.150	  0.470	  0.585	  0.470	  0.295	  0.190	   00:00.522	  0.225	  0.300	  0.075	 -0.260	  0.075	  0.185	  0.175	  0.450	  0.560	  0.405	  0.275	  0.160	   00:00.524	  0.200	  0.280	  0.080	 -0.240	  0.060	  0.180	  0.145	  0.405	  0.545	  0.395	  0.240	  0.155	   00:00.526	  0.175	  0.250	  0.075	 -0.210	  0.050	  0.160	  0.135	  0.455	  0.525	  0.370	  0.250	  0.150	   00:00.528	  0.145	  0.210	  0.065	 -0.175	  0.040	  0.135	  0.115	  0.385	  0.500	  0.305	  0.205	  0.130	   00:00.530	  0.140	  0.185	  0.045	 -0.160	  0.045	  0.115	  0.115	  0.360	  0.435	  0.255	  0.200	  0.125	   00:00.532	  0.095	  0.150	  0.055	 -0.120	  0.020	  0.100	  0.115	  0.365	  0.400	  0.225	  0.210	  0.080	   00:00.534	  0.090	  0.130	  0.040	 -0.110	  0.025	  0.085	  0.080	  0.350	  0.360	  0.200	  0.155	  0.085	   00:00.536	  0.085	  0.120	  0.035	 -0.100	  0.025	  0.075	  0.130	  0.325	  0.295	  0.180	  0.135	  0.070	   00:00.538	  0.070	  0.100	  0.030	 -0.085	  0.020	  0.065	  0.100	  0.310	  0.280	  0.125	  0.105	  0.045	   00:00.540	  0.045	  0.040	 -0.005	 -0.040	  0.025	  0.015	  0.085	  0.285	  0.230	  0.125	  0.120	  0.005	   00:00.542	  0.005	  0.025	  0.020	 -0.015	 -0.005	  0.020	  0.070	  0.235	  0.200	  0.110	  0.065	  0.010	   00:00.544	 0.000	 -0.010	 -0.010	  0.005	  0.005	 -0.010	  0.085	  0.180	  0.120	  0.035	  0.010	 -0.015	   00:00.546	 -0.045	 -0.045	 0.000	  0.045	 -0.020	 -0.020	  0.060	  0.175	  0.075	 -0.040	 0.000	 -0.010	   00:00.548	 -0.030	 -0.065	 -0.035	  0.045	 0.000	 -0.050	  0.055	  0.150	  0.055	 -0.085	 -0.035	 -0.020	   00:00.550	 -0.070	 -0.070	 0.000	  0.070	 -0.035	 -0.035	  0.050	  0.170	  0.025	 -0.085	 -0.030	 -0.080	   00:00.552	 -0.010	 -0.070	 -0.060	  0.040	  0.025	 -0.065	  0.085	  0.100	 0.000	 -0.060	 0.000	 -0.065	   00:00.554	 0.000	  0.020	  0.020	 -0.010	 -0.010	  0.020	  0.085	  0.125	 -0.035	 -0.065	  0.010	 -0.030	   00:00.556	 -0.005	 -0.010	 -0.005	  0.005	 0.000	 -0.005	  0.080	  0.125	  0.010	 -0.060	  0.005	  0.010	   00:00.558	  0.020	  0.045	  0.025	 -0.030	 0.000	  0.035	  0.080	  0.150	  0.005	 -0.045	  0.005	  0.015	   00:00.560	  0.030	  0.065	  0.035	 -0.045	 0.000	  0.050	  0.065	  0.155	 0.000	 -0.040	  0.045	  0.005	   00:00.562	  0.045	  0.065	  0.020	 -0.055	  0.010	  0.040	  0.050	  0.175	  0.005	 -0.015	  0.045	  0.015	   00:00.564	  0.060	  0.060	 0.000	 -0.060	  0.030	  0.030	  0.110	  0.165	 -0.015	 -0.030	  0.015	 0.000	   00:00.566	  0.070	  0.070	 0.000	 -0.070	  0.035	  0.035	  0.115	  0.160	 0.000	 -0.040	  0.025	  0.020	   00:00.568	  0.055	  0.055	 0.000	 -0.055	  0.025	  0.025	  0.110	  0.135	 -0.005	 -0.050	 0.000	  0.020	   00:00.570	  0.070	  0.050	 -0.020	 -0.060	  0.045	  0.015	  0.105	  0.150	 0.000	 -0.035	  0.020	  0.005	   00:00.572	  0.090	  0.090	 0.000	 -0.090	  0.045	  0.045	  0.110	  0.150	 -0.005	 -0.025	  0.015	  0.010	   00:00.574	  0.080	  0.080	 0.000	 -0.080	  0.040	  0.040	  0.090	  0.170	  0.005	 -0.025	  0.035	  0.005	   00:00.576	  0.055	  0.075	  0.020	 -0.065	  0.015	  0.045	  0.120	  0.130	 0.000	 -0.030	  0.035	  0.005	   00:00.578	  0.080	  0.095	  0.015	 -0.085	  0.030	  0.055	  0.105	  0.145	 -0.005	 -0.040	  0.020	  0.025	   00:00.580	  0.075	  0.075	 0.000	 -0.075	  0.035	  0.035	  0.100	  0.150	 0.000	 -0.020	  0.010	  0.010	   00:00.582	  0.025	  0.055	  0.030	 -0.040	 0.000	  0.040	  0.075	  0.145	 0.000	 -0.035	  0.025	  0.030	   00:00.584	  0.005	  0.030	  0.025	 -0.015	 -0.010	  0.025	  0.060	  0.165	  0.015	 -0.015	  0.050	  0.020	   00:00.586	  0.015	  0.015	 0.000	 -0.015	  0.005	  0.005	  0.075	  0.125	  0.030	 -0.010	  0.060	 0.000	   00:00.588	  0.005	  0.015	  0.010	 -0.010	 0.000	  0.010	  0.070	  0.110	 -0.025	 -0.040	 -0.010	 -0.015	   00:00.590	 0.000	 -0.020	 -0.020	  0.010	  0.010	 -0.020	  0.080	  0.125	 -0.035	 -0.060	 -0.005	  0.005	   00:00.592	 -0.060	 -0.045	  0.015	  0.050	 -0.035	 -0.015	  0.050	  0.090	 -0.025	 -0.090	 -0.030	 -0.015	   00:00.594	 -0.035	 -0.050	 -0.015	  0.040	 -0.010	 -0.030	  0.025	  0.100	 -0.045	 -0.100	 -0.020	 -0.070	   00:00.596	 -0.055	 -0.070	 -0.015	  0.060	 -0.020	 -0.040	  0.055	  0.035	 -0.075	 -0.095	 -0.025	 -0.095	   00:00.598	 -0.070	 -0.115	 -0.045	  0.090	 -0.010	 -0.080	  0.045	  0.045	 -0.105	 -0.140	 -0.070	 -0.080	   00:00.600	 -0.125	 -0.145	 -0.020	  0.135	 -0.050	 -0.080	  0.020	  0.010	 -0.110	 -0.180	 -0.120	 -0.120	   00:00.602	 -0.105	 -0.175	 -0.070	  0.140	 -0.015	 -0.120	  0.015	 0.000	 -0.140	 -0.185	 -0.120	 -0.120	   00:00.604	 -0.115	 -0.210	 -0.095	  0.160	 -0.010	 -0.150	  0.015	 -0.010	 -0.200	 -0.220	 -0.145	 -0.170	   00:00.606	 -0.165	 -0.245	 -0.080	  0.205	 -0.040	 -0.160	  0.020	 -0.005	 -0.185	 -0.255	 -0.205	 -0.180	   00:00.608	 -0.175	 -0.235	 -0.060	  0.205	 -0.055	 -0.145	  0.005	 -0.045	 -0.240	 -0.275	 -0.205	 -0.180	   00:00.610	 -0.135	 -0.210	 -0.075	  0.170	 -0.030	 -0.140	  0.005	 -0.025	 -0.245	 -0.280	 -0.220	 -0.170	   00:00.612	 -0.155	 -0.210	 -0.055	  0.180	 -0.050	 -0.130	  0.005	 -0.055	 -0.245	 -0.285	 -0.235	 -0.185	   00:00.614	 -0.150	 -0.230	 -0.080	  0.190	 -0.035	 -0.155	  0.025	 -0.040	 -0.245	 -0.260	 -0.210	 -0.170	   00:00.616	 -0.170	 -0.240	 -0.070	  0.205	 -0.050	 -0.155	  0.005	 -0.050	 -0.250	 -0.290	 -0.205	 -0.180	   00:00.618	 -0.145	 -0.215	 -0.070	  0.180	 -0.035	 -0.140	  0.005	 -0.025	 -0.245	 -0.260	 -0.205	 -0.180	   00:00.620	 -0.160	 -0.235	 -0.075	  0.195	 -0.040	 -0.155	  0.005	 -0.045	 -0.240	 -0.285	 -0.215	 -0.165	   00:00.622	 -0.160	 -0.245	 -0.085	  0.200	 -0.035	 -0.165	  0.010	 -0.045	 -0.235	 -0.270	 -0.205	 -0.170	   00:00.624	 -0.160	 -0.235	 -0.075	  0.195	 -0.040	 -0.155	  0.005	 -0.040	 -0.235	 -0.295	 -0.205	 -0.170	   00:00.626	 -0.145	 -0.220	 -0.075	  0.180	 -0.035	 -0.145	  0.005	 -0.035	 -0.240	 -0.270	 -0.200	 -0.165	   00:00.628	 -0.145	 -0.215	 -0.070	  0.180	 -0.035	 -0.140	  0.010	 -0.025	 -0.240	 -0.260	 -0.200	 -0.175	   00:00.630	 -0.160	 -0.235	 -0.075	  0.195	 -0.040	 -0.155	  0.015	 -0.040	 -0.230	 -0.260	 -0.210	 -0.165	   00:00.632	 -0.170	 -0.225	 -0.055	  0.195	 -0.055	 -0.140	  0.015	 -0.035	 -0.240	 -0.285	 -0.205	 -0.170	   00:00.634	 -0.145	 -0.235	 -0.090	  0.190	 -0.025	 -0.160	  0.005	 -0.035	 -0.265	 -0.295	 -0.230	 -0.160	   00:00.636	 -0.150	 -0.220	 -0.070	  0.185	 -0.040	 -0.145	 0.000	 -0.025	 -0.230	 -0.280	 -0.215	 -0.180	   00:00.638	 -0.160	 -0.240	 -0.080	  0.200	 -0.040	 -0.160	  0.005	 -0.035	 -0.235	 -0.270	 -0.190	 -0.165	   00:00.640	 -0.150	 -0.225	 -0.075	  0.185	 -0.035	 -0.150	  0.010	 -0.015	 -0.220	 -0.250	 -0.200	 -0.170	   00:00.642	 -0.155	 -0.220	 -0.065	  0.185	 -0.045	 -0.140	  0.020	 -0.035	 -0.240	 -0.275	 -0.225	 -0.175	   00:00.644	 -0.155	 -0.225	 -0.070	  0.190	 -0.040	 -0.145	  0.020	 -0.035	 -0.230	 -0.270	 -0.215	 -0.170	   00:00.646	 -0.150	 -0.215	 -0.065	  0.180	 -0.040	 -0.140	  0.020	 -0.040	 -0.245	 -0.295	 -0.195	 -0.185	   00:00.648	 -0.165	 -0.225	 -0.060	  0.195	 -0.050	 -0.140	  0.005	 -0.030	 -0.240	 -0.270	 -0.205	 -0.175	   00:00.650	 -0.135	 -0.220	 -0.085	  0.175	 -0.025	 -0.150	  0.010	 -0.050	 -0.245	 -0.270	 -0.205	 -0.185	   00:00.652	 -0.160	 -0.235	 -0.075	  0.195	 -0.040	 -0.155	  0.015	 -0.045	 -0.245	 -0.290	 -0.205	 -0.175	   00:00.654	 -0.130	 -0.210	 -0.080	  0.170	 -0.025	 -0.145	  0.010	 -0.050	 -0.240	 -0.275	 -0.220	 -0.180	   00:00.656	 -0.155	 -0.255	 -0.100	  0.205	 -0.025	 -0.175	  0.005	 -0.040	 -0.275	 -0.280	 -0.250	 -0.185	   00:00.658	 -0.205	 -0.260	 -0.055	  0.230	 -0.075	 -0.155	 0.000	 -0.055	 -0.315	 -0.300	 -0.255	 -0.215	   00:00.660	 -0.220	 -0.280	 -0.060	  0.250	 -0.080	 -0.170	  0.025	 -0.075	 -0.355	 -0.375	 -0.275	 -0.290	   00:00.662	 -0.275	 -0.335	 -0.060	  0.305	 -0.105	 -0.195	  0.055	 -0.070	 -0.345	 -0.445	 -0.360	 -0.350	   00:00.664	 -0.325	 -0.375	 -0.050	  0.350	 -0.135	 -0.210	  0.135	 -0.020	 -0.220	 -0.425	 -0.460	 -0.415	   00:00.666	 -0.275	 -0.305	 -0.030	  0.290	 -0.120	 -0.165	  0.205	  0.130	  0.125	 -0.200	 -0.340	 -0.305	   00:00.668	 -0.140	 -0.135	  0.005	  0.135	 -0.070	 -0.065	  0.275	  0.350	  0.535	  0.135	 -0.095	 -0.075	   00:00.670	  0.030	  0.150	  0.120	 -0.090	 -0.045	  0.135	  0.350	  0.545	  0.935	  0.660	  0.340	  0.200	   00:00.672	  0.265	  0.480	  0.215	 -0.370	  0.025	  0.345	  0.435	  0.770	  1.340	  1.200	  0.800	  0.605	   00:00.674	  0.480	  0.870	  0.390	 -0.675	  0.045	  0.630	  0.445	  0.840	  1.615	  1.660	  1.060	  0.850	   00:00.676	  0.695	  1.255	  0.560	 -0.975	  0.065	  0.905	  0.390	  0.905	  2.055	  2.195	  1.655	  1.225	   00:00.678	  0.895	  1.560	  0.665	 -1.225	  0.115	  1.110	  0.165	  0.595	  1.830	  2.235	  1.875	  1.435	   00:00.680	  1.040	  1.770	  0.730	 -1.405	  0.155	  1.250	 -0.150	  0.130	  1.395	  2.055	  1.905	  1.565	   00:00.682	  0.935	  1.530	  0.595	 -1.230	  0.170	  1.060	 -0.475	 -0.410	  0.555	  1.430	  1.530	  1.375	   00:00.684	  0.785	  1.295	  0.510	 -1.040	  0.135	  0.900	 -0.770	 -0.945	 -0.260	  0.995	  1.175	  1.170	   00:00.686	  0.545	  0.880	  0.335	 -0.710	  0.105	  0.605	 -1.015	 -1.620	 -0.925	  0.465	  0.860	  0.885	   00:00.688	  0.390	  0.615	  0.225	 -0.500	  0.080	  0.420	 -1.310	 -2.185	 -1.570	 -0.085	  0.490	  0.535	   00:00.690	  0.125	  0.195	  0.070	 -0.160	  0.025	  0.130	 -1.490	 -2.355	 -1.875	 -0.475	  0.040	  0.200	   00:00.692	  0.020	 -0.105	 -0.125	  0.040	  0.070	 -0.115	 -1.325	 -2.205	 -1.855	 -0.865	 -0.260	 -0.130	   00:00.694	 -0.140	 -0.265	 -0.125	  0.200	 -0.005	 -0.195	 -0.920	 -1.690	 -1.405	 -0.895	 -0.385	 -0.175	   00:00.696	 -0.270	 -0.390	 -0.120	  0.330	 -0.075	 -0.255	 -0.580	 -1.180	 -1.050	 -0.815	 -0.405	 -0.255	   00:00.698	 -0.205	 -0.335	 -0.130	  0.270	 -0.035	 -0.230	 -0.345	 -0.705	 -0.660	 -0.655	 -0.320	 -0.245	   00:00.700	 -0.225	 -0.330	 -0.105	  0.275	 -0.060	 -0.215	 -0.090	 -0.325	 -0.385	 -0.450	 -0.285	 -0.225	   00:00.702	 -0.200	 -0.285	 -0.085	  0.240	 -0.055	 -0.185	  0.015	 -0.120	 -0.305	 -0.305	 -0.275	 -0.185	   00:00.704	 -0.180	 -0.260	 -0.080	  0.220	 -0.050	 -0.170	  0.015	 -0.075	 -0.280	 -0.280	 -0.220	 -0.165	   00:00.706	 -0.155	 -0.220	 -0.065	  0.185	 -0.045	 -0.140	  0.025	 -0.045	 -0.235	 -0.265	 -0.195	 -0.160	   00:00.708	 -0.155	 -0.240	 -0.085	  0.195	 -0.035	 -0.160	  0.015	 -0.025	 -0.230	 -0.290	 -0.225	 -0.190	   00:00.710	 -0.155	 -0.240	 -0.085	  0.195	 -0.035	 -0.160	  0.015	 -0.030	 -0.230	 -0.265	 -0.200	 -0.180	   00:00.712	 -0.155	 -0.220	 -0.065	  0.185	 -0.045	 -0.140	  0.010	 -0.025	 -0.220	 -0.255	 -0.200	 -0.170	   00:00.714	 -0.160	 -0.225	 -0.065	  0.190	 -0.045	 -0.145	  0.015	 -0.025	 -0.225	 -0.270	 -0.205	 -0.175	   00:00.716	 -0.170	 -0.225	 -0.055	  0.195	 -0.055	 -0.140	  0.040	 -0.040	 -0.235	 -0.275	 -0.225	 -0.170	   00:00.718	 -0.170	 -0.250	 -0.080	  0.210	 -0.045	 -0.165	 0.000	 -0.035	 -0.220	 -0.285	 -0.220	 -0.175	   00:00.720	 -0.140	 -0.235	 -0.095	  0.185	 -0.020	 -0.165	  0.030	 -0.025	 -0.240	 -0.260	 -0.210	 -0.175	   00:00.722	 -0.165	 -0.235	 -0.070	  0.200	 -0.045	 -0.150	  0.015	 -0.015	 -0.210	 -0.260	 -0.200	 -0.175	   00:00.724	 -0.170	 -0.235	 -0.065	  0.200	 -0.050	 -0.150	  0.025	 -0.020	 -0.250	 -0.275	 -0.195	 -0.160	   00:00.726	 -0.140	 -0.220	 -0.080	  0.180	 -0.030	 -0.150	  0.015	 -0.030	 -0.230	 -0.260	 -0.210	 -0.180	   00:00.728	 -0.160	 -0.235	 -0.075	  0.195	 -0.040	 -0.155	  0.020	 -0.025	 -0.245	 -0.285	 -0.215	 -0.160	   00:00.730	 -0.155	 -0.235	 -0.080	  0.195	 -0.035	 -0.155	  0.020	 -0.060	 -0.245	 -0.290	 -0.225	 -0.180	   00:00.732	 -0.155	 -0.235	 -0.080	  0.195	 -0.035	 -0.155	 0.000	 -0.020	 -0.245	 -0.280	 -0.220	 -0.175	   00:00.734	 -0.160	 -0.220	 -0.060	  0.190	 -0.050	 -0.140	 0.000	 -0.030	 -0.245	 -0.270	 -0.215	 -0.180	   00:00.736	 -0.145	 -0.220	 -0.075	  0.180	 -0.035	 -0.145	  0.005	 -0.030	 -0.225	 -0.260	 -0.210	 -0.165	   00:00.738	 -0.140	 -0.230	 -0.090	  0.185	 -0.025	 -0.160	  0.015	 -0.035	 -0.235	 -0.270	 -0.220	 -0.170	   00:00.740	 -0.140	 -0.210	 -0.070	  0.175	 -0.035	 -0.140	 0.000	 -0.035	 -0.230	 -0.265	 -0.215	 -0.170	   00:00.742	 -0.165	 -0.225	 -0.060	  0.195	 -0.050	 -0.140	 0.000	 -0.025	 -0.250	 -0.285	 -0.205	 -0.195	   00:00.744	 -0.115	 -0.195	 -0.080	  0.155	 -0.015	 -0.135	  0.025	 -0.045	 -0.235	 -0.280	 -0.180	 -0.185	   00:00.746	 -0.135	 -0.210	 -0.075	  0.170	 -0.030	 -0.140	  0.010	 -0.030	 -0.185	 -0.265	 -0.210	 -0.195	   00:00.748	 -0.140	 -0.200	 -0.060	  0.170	 -0.040	 -0.130	  0.035	 -0.035	 -0.185	 -0.240	 -0.230	 -0.155	   00:00.750	 -0.135	 -0.175	 -0.040	  0.155	 -0.045	 -0.105	 -0.005	 -0.035	 -0.095	 -0.215	 -0.225	 -0.130	   00:00.752	 -0.110	 -0.140	 -0.030	  0.125	 -0.040	 -0.085	  0.025	  0.015	 -0.090	 -0.170	 -0.165	 -0.140	   00:00.754	 -0.075	 -0.145	 -0.070	  0.110	 0.000	 -0.105	  0.045	 0.000	 -0.060	 -0.125	 -0.165	 -0.130	   00:00.756	 -0.080	 -0.110	 -0.030	  0.095	 -0.025	 -0.070	  0.040	 0.000	 -0.025	 -0.125	 -0.145	 -0.110	   00:00.758	 -0.065	 -0.100	 -0.035	  0.080	 -0.015	 -0.065	  0.060	  0.070	 0.000	 -0.080	 -0.140	 -0.080	   00:00.760	 -0.050	 -0.065	 -0.015	  0.055	 -0.015	 -0.040	  0.055	  0.050	  0.050	 -0.050	 -0.140	 -0.095	   00:00.762	 -0.015	 -0.050	 -0.035	  0.030	  0.010	 -0.040	  0.070	  0.080	  0.070	 -0.040	 -0.110	 -0.060	   00:00.764	 -0.010	 -0.035	 -0.025	  0.020	  0.005	 -0.030	  0.060	  0.100	  0.145	  0.005	 -0.080	 -0.060	   00:00.766	 -0.010	 -0.010	 0.000	  0.010	 -0.005	 -0.005	  0.060	  0.120	  0.185	  0.050	 -0.030	 -0.020	   00:00.768	  0.025	  0.015	 -0.010	 -0.020	  0.015	 0.000	  0.080	  0.140	  0.205	  0.070	 -0.060	 -0.025	   00:00.770	  0.060	  0.045	 -0.015	 -0.050	  0.035	  0.015	  0.090	  0.150	  0.205	  0.080	 -0.030	  0.015	   00:00.772	  0.070	  0.055	 -0.015	 -0.060	  0.040	  0.020	  0.095	  0.140	  0.275	  0.125	 -0.035	  0.005	   00:00.774	  0.075	  0.075	 0.000	 -0.075	  0.035	  0.035	  0.075	  0.170	  0.320	  0.185	  0.010	  0.040	   00:00.776	  0.070	  0.115	  0.045	 -0.090	  0.010	  0.080	  0.105	  0.215	  0.365	  0.225	  0.045	  0.060	   00:00.778	  0.110	  0.125	  0.015	 -0.115	  0.045	  0.070	  0.110	  0.245	  0.415	  0.230	  0.065	  0.050	   00:00.780	  0.135	  0.130	 -0.005	 -0.130	  0.070	  0.060	  0.130	  0.225	  0.460	  0.260	  0.045	  0.050	   00:00.782	  0.115	  0.180	  0.065	 -0.145	  0.025	  0.120	  0.120	  0.250	  0.470	  0.305	  0.075	  0.090	   00:00.784	  0.165	  0.185	  0.020	 -0.175	  0.070	  0.100	  0.115	  0.300	  0.485	  0.355	  0.135	  0.090	   00:00.786	  0.135	  0.205	  0.070	 -0.170	  0.030	  0.135	  0.110	  0.365	  0.560	  0.380	  0.170	  0.105	   00:00.788	  0.195	  0.235	  0.040	 -0.215	  0.075	  0.135	  0.130	  0.370	  0.560	  0.400	  0.195	  0.125	   00:00.790	  0.230	  0.275	  0.045	 -0.250	  0.090	  0.160	  0.165	  0.340	  0.560	  0.400	  0.160	  0.145	   00:00.792	  0.195	  0.295	  0.100	 -0.245	  0.045	  0.195	  0.145	  0.390	  0.625	  0.435	  0.180	  0.170	   00:00.794	  0.235	  0.305	  0.070	 -0.270	  0.080	  0.185	  0.155	  0.395	  0.660	  0.480	  0.235	  0.160	   00:00.796	  0.240	  0.300	  0.060	 -0.270	  0.090	  0.180	  0.140	  0.410	  0.670	  0.455	  0.210	  0.150	   00:00.798	  0.230	  0.290	  0.060	 -0.260	  0.085	  0.175	  0.160	  0.440	  0.700	  0.500	  0.265	  0.170	   00:00.800	  0.240	  0.325	  0.085	 -0.280	  0.075	  0.205	  0.140	  0.465	  0.695	  0.515	  0.275	  0.175	   00:00.802	  0.260	  0.365	  0.105	 -0.310	  0.075	  0.235	  0.155	  0.460	  0.730	  0.540	  0.260	  0.225	   00:00.804	  0.240	  0.355	  0.115	 -0.295	  0.060	  0.235	  0.145	  0.455	  0.755	  0.560	  0.265	  0.200	   00:00.806	  0.240	  0.340	  0.100	 -0.290	  0.070	  0.220	  0.155	  0.485	  0.750	  0.565	  0.310	  0.215	   00:00.808	  0.265	  0.360	  0.095	 -0.310	  0.085	  0.225	  0.155	  0.510	  0.780	  0.595	  0.335	  0.210	   00:00.810	  0.295	  0.380	  0.085	 -0.335	  0.105	  0.230	  0.180	  0.490	  0.800	  0.615	  0.325	  0.205	   00:00.812	  0.305	  0.380	  0.075	 -0.340	  0.115	  0.225	  0.185	  0.495	  0.805	  0.595	  0.300	  0.220	   00:00.814	  0.315	  0.380	  0.065	 -0.345	  0.125	  0.220	  0.180	  0.495	  0.840	  0.605	  0.300	  0.195	   00:00.816	  0.300	  0.395	  0.095	 -0.345	  0.100	  0.245	  0.175	  0.470	  0.825	  0.590	  0.310	  0.215	   00:00.818	  0.290	  0.410	  0.120	 -0.350	  0.085	  0.265	  0.180	  0.480	  0.820	  0.595	  0.300	  0.250	   00:00.820	  0.305	  0.400	  0.095	 -0.350	  0.105	  0.245	  0.195	  0.485	  0.825	  0.620	  0.310	  0.220	   00:00.822	  0.300	  0.400	  0.100	 -0.350	  0.100	  0.250	  0.180	  0.475	  0.825	  0.650	  0.285	  0.255	   00:00.824	  0.305	  0.400	  0.095	 -0.350	  0.105	  0.245	  0.170	  0.480	  0.810	  0.625	  0.290	  0.240	   00:00.826	  0.295	  0.405	  0.110	 -0.350	  0.090	  0.255	  0.205	  0.505	  0.835	  0.665	  0.290	  0.245	   00:00.828	  0.295	  0.370	  0.075	 -0.330	  0.110	  0.220	  0.175	  0.485	  0.835	  0.615	  0.310	  0.210	   00:00.830	  0.290	  0.340	  0.050	 -0.315	  0.120	  0.195	  0.205	  0.500	  0.830	  0.600	  0.325	  0.200	   00:00.832	  0.320	  0.370	  0.050	 -0.345	  0.135	  0.210	  0.190	  0.525	  0.845	  0.620	  0.335	  0.195	   00:00.834	  0.305	  0.350	  0.045	 -0.325	  0.130	  0.195	  0.190	  0.500	  0.795	  0.590	  0.315	  0.200	   00:00.836	  0.305	  0.375	  0.070	 -0.340	  0.115	  0.220	  0.205	  0.490	  0.780	  0.600	  0.285	  0.205	   00:00.838	  0.290	  0.365	  0.075	 -0.325	  0.105	  0.220	  0.185	  0.480	  0.730	  0.595	  0.315	  0.185	   00:00.840	  0.300	  0.365	  0.065	 -0.330	  0.115	  0.215	  0.180	  0.500	  0.725	  0.570	  0.315	  0.200	   00:00.842	  0.285	  0.350	  0.065	 -0.315	  0.110	  0.205	  0.190	  0.485	  0.680	  0.545	  0.315	  0.185	   00:00.844	  0.250	  0.345	  0.095	 -0.295	  0.075	  0.220	  0.155	  0.485	  0.650	  0.505	  0.315	  0.210	   00:00.846	  0.230	  0.330	  0.100	 -0.280	  0.065	  0.215	  0.125	  0.445	  0.635	  0.460	  0.255	  0.195	   00:00.848	  0.215	  0.285	  0.070	 -0.250	  0.070	  0.175	  0.145	  0.450	  0.595	  0.450	  0.275	  0.155	   00:00.850	  0.230	  0.305	  0.075	 -0.265	  0.075	  0.190	  0.155	  0.435	  0.555	  0.405	  0.250	  0.145	   00:00.852	  0.200	  0.265	  0.065	 -0.230	  0.065	  0.165	  0.140	  0.425	  0.535	  0.375	  0.245	  0.160	   00:00.854	  0.185	  0.235	  0.050	 -0.210	  0.065	  0.140	  0.135	  0.420	  0.530	  0.390	  0.250	  0.175	   00:00.856	  0.155	  0.210	  0.055	 -0.180	  0.050	  0.130	  0.115	  0.405	  0.505	  0.330	  0.210	  0.115	   00:00.858	  0.145	  0.205	  0.060	 -0.175	  0.040	  0.130	  0.095	  0.370	  0.475	  0.290	  0.220	  0.135	   00:00.860	  0.160	  0.175	  0.015	 -0.165	  0.070	  0.095	  0.115	  0.365	  0.450	  0.240	  0.205	  0.090	   00:00.862	  0.090	  0.140	  0.050	 -0.115	  0.020	  0.095	  0.080	  0.350	  0.350	  0.205	  0.205	  0.080	   00:00.864	  0.090	  0.130	  0.040	 -0.110	  0.025	  0.085	  0.090	  0.310	  0.330	  0.195	  0.125	  0.065	   00:00.866	  0.085	  0.090	  0.005	 -0.085	  0.040	  0.045	  0.100	  0.285	  0.245	  0.135	  0.115	  0.045	   00:00.868	  0.065	  0.075	  0.010	 -0.070	  0.025	  0.040	  0.095	  0.290	  0.230	  0.100	  0.085	  0.020	   00:00.870	  0.010	  0.035	  0.025	 -0.020	 -0.005	  0.030	  0.050	  0.245	  0.180	  0.115	  0.090	  0.005	   00:00.872	  0.005	 -0.005	 -0.010	 0.000	  0.005	 -0.005	  0.050	  0.205	  0.145	  0.075	  0.040	 -0.030	   00:00.874	 -0.005	 -0.005	 0.000	  0.005	 0.000	 0.000	  0.065	  0.155	  0.070	 -0.005	 -0.015	 -0.025	   00:00.876	 -0.010	 -0.035	 -0.025	  0.020	  0.005	 -0.030	  0.055	  0.135	  0.045	 -0.070	 -0.025	 -0.040	   00:00.878	 -0.050	 -0.045	  0.005	  0.045	 -0.025	 -0.020	  0.045	  0.120	 0.000	 -0.100	 -0.045	 -0.060	   00:00.880	 -0.030	 -0.080	 -0.050	  0.055	  0.010	 -0.065	  0.050	  0.120	 -0.045	 -0.100	 -0.035	 -0.110	   00:00.882	  0.015	 -0.025	 -0.040	  0.005	  0.025	 -0.030	  0.085	  0.080	 -0.035	 -0.065	  0.010	 -0.040	   00:00.884	 0.000	 -0.010	 -0.010	  0.005	  0.005	 -0.010	  0.050	  0.120	 -0.035	 -0.075	  0.010	 -0.030	   00:00.886	  0.025	  0.010	 -0.015	 -0.015	  0.020	 0.000	  0.070	  0.135	 -0.005	 -0.065	 -0.020	 -0.020	   00:00.888	  0.030	  0.050	  0.020	 -0.040	  0.005	  0.035	  0.040	  0.145	 0.000	 -0.040	  0.035	  0.030	   00:00.890	  0.020	  0.045	  0.025	 -0.030	 0.000	  0.035	  0.065	  0.170	 -0.005	 -0.020	  0.025	  0.025	   00:00.892	  0.040	  0.045	  0.005	 -0.040	  0.015	  0.025	  0.075	  0.160	 -0.005	 -0.025	  0.035	  0.015	   00:00.894	  0.075	  0.050	 -0.025	 -0.060	  0.050	  0.010	  0.120	  0.160	 -0.010	 -0.025	  0.035	  0.005	   00:00.896	  0.075	  0.080	  0.005	 -0.075	  0.035	  0.040	  0.090	  0.135	 -0.010	 -0.050	  0.015	  0.025	   00:00.898	  0.070	  0.050	 -0.020	 -0.060	  0.045	  0.015	  0.100	  0.155	 -0.010	 -0.040	  0.025	  0.020	   00:00.900	  0.080	  0.070	 -0.010	 -0.075	  0.045	  0.030	  0.095	  0.150	 0.000	 -0.035	  0.020	 0.000	   00:00.902	  0.070	  0.055	 -0.015	 -0.060	  0.040	  0.020	  0.110	  0.155	 -0.010	 -0.045	  0.035	 0.000	   00:00.904	  0.070	  0.070	 0.000	 -0.070	  0.035	  0.035	  0.120	  0.145	 -0.005	 -0.050	  0.025	  0.010	   00:00.906	  0.075	  0.045	 -0.030	 -0.060	  0.050	  0.005	  0.100	  0.165	 0.000	 -0.030	  0.025	  0.035	   00:00.908	  0.070	  0.065	 -0.005	 -0.065	  0.035	  0.030	  0.115	  0.140	 -0.020	 -0.045	  0.010	 0.000	   00:00.910	  0.055	  0.055	 0.000	 -0.055	  0.025	  0.025	  0.080	  0.135	 -0.020	 -0.055	  0.020	  0.015	   00:00.912	  0.010	  0.055	  0.045	 -0.030	 -0.015	  0.050	  0.065	  0.145	 0.000	 -0.025	  0.035	  0.030	   00:00.914	  0.015	  0.020	  0.005	 -0.015	  0.005	  0.010	  0.060	  0.135	 -0.005	 -0.025	  0.050	 0.000	   00:00.916	  0.010	 0.000	 -0.010	 -0.005	  0.010	 -0.005	  0.080	  0.110	 0.000	 -0.025	  0.025	 -0.020	   00:00.918	  0.005	 0.000	 -0.005	 0.000	  0.005	 0.000	  0.075	  0.105	 -0.050	 -0.095	 -0.020	 -0.015	   00:00.920	 -0.025	 -0.050	 -0.025	  0.035	 0.000	 -0.035	  0.055	  0.115	 -0.035	 -0.075	 -0.020	 -0.035	   00:00.922	 -0.045	 -0.055	 -0.010	  0.050	 -0.015	 -0.030	  0.020	  0.075	 -0.045	 -0.085	 -0.055	 -0.060	   00:00.924	 -0.065	 -0.080	 -0.015	  0.070	 -0.025	 -0.045	  0.045	  0.070	 -0.075	 -0.100	 -0.025	 -0.080	   00:00.926	 -0.080	 -0.110	 -0.030	  0.095	 -0.025	 -0.070	  0.060	  0.030	 -0.095	 -0.110	 -0.055	 -0.100	   00:00.928	 -0.115	 -0.165	 -0.050	  0.140	 -0.030	 -0.105	  0.030	  0.010	 -0.120	 -0.155	 -0.095	 -0.095	   00:00.930	 -0.125	 -0.165	 -0.040	  0.145	 -0.040	 -0.100	  0.015	 -0.010	 -0.125	 -0.180	 -0.120	 -0.120	   00:00.932	 -0.130	 -0.205	 -0.075	  0.165	 -0.025	 -0.140	  0.005	 -0.010	 -0.190	 -0.205	 -0.140	 -0.145	   00:00.934	 -0.145	 -0.230	 -0.085	  0.185	 -0.030	 -0.155	  0.010	 -0.055	 -0.205	 -0.260	 -0.210	 -0.195	   00:00.936	 -0.160	 -0.240	 -0.080	  0.200	 -0.040	 -0.160	  0.010	 -0.040	 -0.225	 -0.280	 -0.190	 -0.160	   00:00.938	 -0.155	 -0.240	 -0.085	  0.195	 -0.035	 -0.160	  0.015	 -0.045	 -0.245	 -0.290	 -0.230	 -0.185	   00:00.940	 -0.155	 -0.215	 -0.060	  0.185	 -0.045	 -0.135	  0.025	 -0.040	 -0.240	 -0.285	 -0.205	 -0.160	   00:00.942	 -0.150	 -0.240	 -0.090	  0.195	 -0.030	 -0.165	  0.025	 -0.045	 -0.255	 -0.285	 -0.225	 -0.180	   00:00.944	 -0.140	 -0.230	 -0.090	  0.185	 -0.025	 -0.160	 0.000	 -0.045	 -0.255	 -0.285	 -0.200	 -0.170	   00:00.946	 -0.165	 -0.245	 -0.080	  0.205	 -0.040	 -0.160	  0.010	 -0.035	 -0.255	 -0.285	 -0.205	 -0.190	   00:00.948	 -0.160	 -0.220	 -0.060	  0.190	 -0.050	 -0.140	  0.005	 -0.045	 -0.250	 -0.285	 -0.210	 -0.180	   00:00.950	 -0.180	 -0.265	 -0.085	  0.220	 -0.045	 -0.175	  0.010	 -0.030	 -0.255	 -0.280	 -0.240	 -0.190	   00:00.952	 -0.145	 -0.250	 -0.105	  0.195	 -0.020	 -0.175	 0.000	 -0.055	 -0.265	 -0.300	 -0.230	 -0.195	   00:00.954	 -0.180	 -0.235	 -0.055	  0.205	 -0.060	 -0.145	  0.025	 -0.050	 -0.270	 -0.305	 -0.220	 -0.195	   00:00.956	 -0.140	 -0.215	 -0.075	  0.175	 -0.030	 -0.145	 0.000	 -0.050	 -0.255	 -0.285	 -0.220	 -0.190	   00:00.958	 -0.145	 -0.215	 -0.070	  0.180	 -0.035	 -0.140	  0.010	 -0.040	 -0.255	 -0.260	 -0.200	 -0.180	   00:00.960	 -0.170	 -0.225	 -0.055	  0.195	 -0.055	 -0.140	  0.010	 -0.050	 -0.245	 -0.285	 -0.215	 -0.180	   00:00.962	 -0.135	 -0.230	 -0.095	  0.180	 -0.020	 -0.160	  0.005	 -0.050	 -0.250	 -0.275	 -0.240	 -0.175	   00:00.964	 -0.160	 -0.220	 -0.060	  0.190	 -0.050	 -0.140	 0.000	 -0.050	 -0.255	 -0.285	 -0.220	 -0.180	   00:00.966	 -0.145	 -0.235	 -0.090	  0.190	 -0.025	 -0.160	  0.010	 -0.030	 -0.245	 -0.285	 -0.205	 -0.185	   00:00.968	 -0.195	 -0.250	 -0.055	  0.220	 -0.070	 -0.150	  0.010	 -0.040	 -0.255	 -0.265	 -0.195	 -0.175	   00:00.970	 -0.150	 -0.230	 -0.080	  0.190	 -0.035	 -0.155	  0.020	 -0.040	 -0.260	 -0.275	 -0.230	 -0.170	   00:00.972	 -0.150	 -0.225	 -0.075	  0.185	 -0.035	 -0.150	  0.020	 -0.050	 -0.250	 -0.290	 -0.235	 -0.165	   00:00.974	 -0.175	 -0.255	 -0.080	  0.215	 -0.045	 -0.165	 0.000	 -0.025	 -0.245	 -0.285	 -0.200	 -0.170	   00:00.976	 -0.170	 -0.230	 -0.060	  0.200	 -0.055	 -0.145	  0.010	 -0.045	 -0.235	 -0.265	 -0.205	 -0.160	   00:00.978	 -0.160	 -0.240	 -0.080	  0.200	 -0.040	 -0.160	 0.000	 -0.040	 -0.245	 -0.270	 -0.195	 -0.190	   00:00.980	 -0.155	 -0.220	 -0.065	  0.185	 -0.045	 -0.140	  0.020	 -0.040	 -0.265	 -0.280	 -0.205	 -0.180	   00:00.982	 -0.150	 -0.220	 -0.070	  0.185	 -0.040	 -0.145	  0.005	 -0.045	 -0.260	 -0.275	 -0.210	 -0.175	   00:00.984	 -0.160	 -0.225	 -0.065	  0.190	 -0.045	 -0.145	  0.020	 -0.050	 -0.260	 -0.295	 -0.240	 -0.175	   00:00.986	 -0.180	 -0.250	 -0.070	  0.215	 -0.055	 -0.160	 0.000	 -0.055	 -0.300	 -0.290	 -0.285	 -0.185	   00:00.988	 -0.225	 -0.315	 -0.090	  0.270	 -0.065	 -0.200	  0.010	 -0.075	 -0.345	 -0.350	 -0.280	 -0.250	   00:00.990	 -0.255	 -0.330	 -0.075	  0.290	 -0.090	 -0.200	  0.025	 -0.070	 -0.390	 -0.410	 -0.305	 -0.305	   00:00.992	 -0.295	 -0.360	 -0.065	  0.325	 -0.115	 -0.210	  0.090	 -0.050	 -0.315	 -0.465	 -0.410	 -0.370	   00:00.994	 -0.320	 -0.360	 -0.040	  0.340	 -0.140	 -0.200	  0.150	  0.020	 -0.095	 -0.365	 -0.455	 -0.395	   00:00.996	 -0.200	 -0.245	 -0.045	  0.220	 -0.075	 -0.145	  0.260	  0.260	  0.350	 -0.055	 -0.230	 -0.195	   00:00.998	 -0.075	 -0.025	  0.050	  0.050	 -0.060	  0.010	  0.295	  0.400	  0.670	  0.340	  0.040	 -0.005	   00:01.000	  0.145	  0.345	  0.200	 -0.245	 -0.025	  0.270	  0.405	  0.680	  1.165	  0.950	  0.675	  0.430	   00:01.002	  0.335	  0.630	  0.295	 -0.480	  0.020	  0.460	  0.430	  0.795	  1.420	  1.370	  0.855	  0.700	   00:01.004	  0.580	  1.080	  0.500	 -0.830	  0.040	  0.790	  0.430	  0.880	  1.895	  2.015	  1.410	  1.060	   00:01.006	  0.770	  1.335	  0.565	 -1.050	  0.100	  0.950	  0.320	  0.830	  2.020	  2.220	  1.725	  1.340	   00:01.008	  0.980	  1.685	  0.705	 -1.330	  0.135	  1.195	 -0.030	  0.355	  1.645	  2.225	  1.925	  1.520	   00:01.010	  1.030	  1.690	  0.660	 -1.360	  0.185	  1.175	 -0.255	 -0.095	  1.080	  1.755	  1.780	  1.540	   00:01.012	  0.860	  1.400	  0.540	 -1.130	  0.160	  0.970	 -0.635	 -0.710	  0.065	  1.160	  1.335	  1.245	   00:01.014	  0.665	  1.105	  0.440	 -0.885	  0.110	  0.770	 -0.865	 -1.220	 -0.530	  0.800	  1.025	  1.070	   00:01.016	  0.445	  0.695	  0.250	 -0.570	  0.095	  0.470	 -1.185	 -2.000	 -1.350	  0.095	  0.685	  0.655	   00:01.018	  0.295	  0.465	  0.170	 -0.380	  0.060	  0.315	 -1.425	 -2.265	 -1.740	 -0.220	  0.325	  0.485	   00:01.020	  0.040	 0.000	 -0.040	 -0.020	  0.040	 -0.020	 -1.465	 -2.355	 -1.935	 -0.710	 -0.130	 -0.025	   00:01.022	 -0.020	 -0.175	 -0.155	  0.095	  0.065	 -0.165	 -1.155	 -1.965	 -1.660	 -0.905	 -0.330	 -0.155	   00:01.024	 -0.250	 -0.385	 -0.135	  0.315	 -0.055	 -0.260	 -0.720	 -1.440	 -1.205	 -0.855	 -0.415	 -0.205	   00:01.026	 -0.265	 -0.370	 -0.105	  0.315	 -0.080	 -0.235	 -0.480	 -0.970	 -0.895	 -0.785	 -0.370	 -0.270	   00:01.028	 -0.200	 -0.335	 -0.135	  0.265	 -0.030	 -0.235	 -0.190	 -0.495	 -0.445	 -0.555	 -0.290	 -0.230	   00:01.030	 -0.190	 -0.315	 -0.125	  0.250	 -0.030	 -0.220	 -0.025	 -0.220	 -0.365	 -0.380	 -0.275	 -0.190	   00:01.032	 -0.180	 -0.280	 -0.100	  0.230	 -0.040	 -0.190	  0.040	 -0.065	 -0.300	 -0.265	 -0.240	 -0.170	   00:01.034	 -0.185	 -0.265	 -0.080	  0.225	 -0.050	 -0.170	  0.025	 -0.075	 -0.280	 -0.295	 -0.215	 -0.180	   00:01.036	 -0.135	 -0.225	 -0.090	  0.180	 -0.020	 -0.155	  0.015	 -0.020	 -0.235	 -0.280	 -0.230	 -0.180	   00:01.038	 -0.160	 -0.240	 -0.080	  0.200	 -0.040	 -0.160	  0.005	 -0.030	 -0.245	 -0.290	 -0.215	 -0.180	   00:01.040	 -0.185	 -0.255	 -0.070	  0.220	 -0.055	 -0.160	  0.020	 -0.030	 -0.245	 -0.285	 -0.205	 -0.180	   00:01.042	 -0.155	 -0.225	 -0.070	  0.190	 -0.040	 -0.145	  0.025	 -0.030	 -0.225	 -0.255	 -0.205	 -0.165	   00:01.044	 -0.180	 -0.255	 -0.075	  0.215	 -0.050	 -0.165	  0.010	 -0.045	 -0.240	 -0.285	 -0.210	 -0.185	   00:01.046	 -0.155	 -0.235	 -0.080	  0.195	 -0.035	 -0.155	  0.030	 -0.040	 -0.225	 -0.285	 -0.205	 -0.160	   00:01.048	 -0.180	 -0.255	 -0.075	  0.215	 -0.050	 -0.165	  0.005	 -0.035	 -0.250	 -0.290	 -0.220	 -0.165	   00:01.050	 -0.140	 -0.235	 -0.095	  0.185	 -0.020	 -0.165	  0.005	 -0.035	 -0.255	 -0.290	 -0.225	 -0.185	   00:01.052	 -0.170	 -0.235	 -0.065	  0.200	 -0.050	 -0.150	 0.000	 -0.025	 -0.250	 -0.275	 -0.210	 -0.185	   00:01.054	 -0.150	 -0.230	 -0.080	  0.190	 -0.035	 -0.155	  0.020	 -0.030	 -0.250	 -0.275	 -0.190	 -0.175	   00:01.056	 -0.170	 -0.245	 -0.075	  0.205	 -0.045	 -0.160	  0.030	 -0.025	 -0.230	 -0.275	 -0.210	 -0.180	   00:01.058	 -0.150	 -0.235	 -0.085	  0.190	 -0.030	 -0.160	  0.015	 -0.040	 -0.240	 -0.285	 -0.225	 -0.160	   00:01.060	 -0.140	 -0.225	 -0.085	  0.180	 -0.025	 -0.155	  0.025	 -0.025	 -0.240	 -0.275	 -0.225	 -0.185	   00:01.062	 -0.160	 -0.225	 -0.065	  0.190	 -0.045	 -0.145	 0.000	 -0.025	 -0.230	 -0.285	 -0.205	 -0.180	   00:01.064	 -0.150	 -0.230	 -0.080	  0.190	 -0.035	 -0.155	  0.015	 -0.040	 -0.255	 -0.260	 -0.205	 -0.160	   00:01.066	 -0.170	 -0.245	 -0.075	  0.205	 -0.045	 -0.160	  0.025	 -0.040	 -0.240	 -0.265	 -0.205	 -0.170	   00:01.068	 -0.150	 -0.245	 -0.095	  0.195	 -0.025	 -0.170	  0.005	 -0.035	 -0.235	 -0.275	 -0.230	 -0.180	   00:01.070	 -0.170	 -0.250	 -0.080	  0.210	 -0.045	 -0.165	  0.005	 -0.025	 -0.255	 -0.280	 -0.195	 -0.175	   00:01.072	 -0.150	 -0.235	 -0.085	  0.190	 -0.030	 -0.160	  0.005	 -0.035	 -0.235	 -0.275	 -0.210	 -0.160	   00:01.074	 -0.150	 -0.225	 -0.075	  0.185	 -0.035	 -0.150	  0.025	 -0.020	 -0.215	 -0.255	 -0.195	 -0.175	   00:01.076	 -0.140	 -0.220	 -0.080	  0.180	 -0.030	 -0.150	  0.020	 -0.025	 -0.185	 -0.250	 -0.225	 -0.180	   00:01.078	 -0.150	 -0.210	 -0.060	  0.180	 -0.045	 -0.135	  0.005	 -0.045	 -0.135	 -0.230	 -0.230	 -0.135	   00:01.080	 -0.120	 -0.155	 -0.035	  0.135	 -0.040	 -0.095	 0.000	 -0.020	 -0.095	 -0.205	 -0.200	 -0.135	   00:01.082	 -0.100	 -0.175	 -0.075	  0.135	 -0.010	 -0.125	  0.005	 -0.005	 -0.085	 -0.165	 -0.185	 -0.170	   00:01.084	 -0.075	 -0.160	 -0.085	  0.115	  0.005	 -0.120	  0.040	 -0.005	 -0.055	 -0.155	 -0.170	 -0.120	   00:01.086	 -0.070	 -0.100	 -0.030	  0.085	 -0.020	 -0.065	  0.030	  0.030	 -0.035	 -0.120	 -0.145	 -0.085	   00:01.088	 -0.075	 -0.105	 -0.030	  0.090	 -0.020	 -0.065	  0.045	  0.040	  0.005	 -0.050	 -0.155	 -0.095	   00:01.090	 -0.015	 -0.055	 -0.040	  0.035	  0.010	 -0.045	  0.055	  0.060	  0.055	 -0.070	 -0.135	 -0.075	   00:01.092	 -0.020	 -0.060	 -0.040	  0.040	  0.010	 -0.050	  0.080	  0.075	  0.110	 -0.035	 -0.100	 -0.050	   00:01.094	 -0.010	 -0.010	 0.000	  0.010	 -0.005	 -0.005	  0.030	  0.095	  0.140	  0.010	 -0.090	 -0.055	   00:01.096	  0.010	 0.000	 -0.010	 -0.005	  0.010	 -0.005	  0.065	  0.120	  0.190	  0.080	 -0.045	  0.005	   00:01.098	  0.050	  0.040	 -0.010	 -0.045	  0.030	  0.015	  0.085	  0.135	  0.195	  0.035	 -0.045	 -0.015	   00:01.100	  0.050	  0.050	 0.000	 -0.050	  0.025	  0.025	  0.090	  0.150	  0.230	  0.085	 -0.025	  0.025	   00:01.102	  0.040	  0.040	 0.000	 -0.040	  0.020	  0.020	  0.095	  0.150	  0.290	  0.140	 -0.015	  0.005	   00:01.104	  0.070	  0.095	  0.025	 -0.080	  0.020	  0.060	  0.090	  0.200	  0.325	  0.185	  0.005	  0.035	   00:01.106	  0.070	  0.090	  0.020	 -0.080	  0.025	  0.055	  0.105	  0.230	  0.395	  0.230	  0.060	  0.065	   00:01.108	  0.125	  0.115	 -0.010	 -0.120	  0.065	  0.050	  0.130	  0.245	  0.425	  0.240	  0.055	  0.050	   00:01.110	  0.140	  0.170	  0.030	 -0.155	  0.055	  0.100	  0.125	  0.220	  0.450	  0.280	  0.055	  0.090	   00:01.112	  0.140	  0.160	  0.020	 -0.150	  0.060	  0.090	  0.115	  0.290	  0.470	  0.340	  0.080	  0.085	   00:01.114	  0.125	  0.165	  0.040	 -0.145	  0.040	  0.100	  0.120	  0.320	  0.520	  0.370	  0.160	  0.080	   00:01.116	  0.155	  0.205	  0.050	 -0.180	  0.050	  0.125	  0.115	  0.360	  0.540	  0.375	  0.195	  0.095	   00:01.118	  0.200	  0.235	  0.035	 -0.215	  0.080	  0.135	  0.160	  0.355	  0.550	  0.400	  0.160	  0.110	   00:01.120	  0.205	  0.260	  0.055	 -0.230	  0.075	  0.155	  0.160	  0.350	  0.595	  0.410	  0.170	  0.150	   00:01.122	  0.225	  0.290	  0.065	 -0.255	  0.080	  0.175	  0.135	  0.390	  0.630	  0.440	  0.205	  0.140	   00:01.124	  0.210	  0.280	  0.070	 -0.245	  0.070	  0.175	  0.160	  0.405	  0.665	  0.475	  0.215	  0.170	   00:01.126	  0.220	  0.295	  0.075	 -0.255	  0.070	  0.185	  0.145	  0.405	  0.675	  0.485	  0.245	  0.145	   00:01.128	  0.210	  0.290	  0.080	 -0.250	  0.065	  0.185	  0.140	  0.435	  0.680	  0.505	  0.250	  0.180	   00:01.130	  0.240	  0.315	  0.075	 -0.275	  0.080	  0.195	  0.130	  0.420	  0.690	  0.490	  0.255	  0.195	   00:01.132	  0.230	  0.345	  0.115	 -0.285	  0.055	  0.230	  0.150	  0.440	  0.735	  0.550	  0.245	  0.200	   00:01.134	  0.240	  0.345	  0.105	 -0.290	  0.065	  0.225	  0.140	  0.450	  0.730	  0.555	  0.270	  0.205	   00:01.136	  0.250	  0.350	  0.100	 -0.300	  0.075	  0.225	  0.150	  0.490	  0.755	  0.585	  0.325	  0.215	   00:01.138	  0.265	  0.350	  0.085	 -0.305	  0.090	  0.215	  0.155	  0.510	  0.785	  0.595	  0.320	  0.205	   00:01.140	  0.305	  0.360	  0.055	 -0.330	  0.125	  0.205	  0.190	  0.500	  0.795	  0.600	  0.300	  0.225	   00:01.142	  0.300	  0.350	  0.050	 -0.325	  0.125	  0.200	  0.195	  0.485	  0.835	  0.610	  0.310	  0.215	   00:01.144	  0.285	  0.380	  0.095	 -0.330	  0.095	  0.235	  0.185	  0.480	  0.845	  0.590	  0.295	  0.190	   00:01.146	  0.290	  0.390	  0.100	 -0.340	  0.095	  0.245	  0.160	  0.480	  0.825	  0.585	  0.290	  0.235	   00:01.148	  0.290	  0.380	  0.090	 -0.335	  0.100	  0.235	  0.165	  0.455	  0.790	  0.595	  0.300	  0.225	   00:01.150	  0.310	  0.415	  0.105	 -0.360	  0.100	  0.260	  0.165	  0.460	  0.815	  0.625	  0.295	  0.245	   00:01.152	  0.300	  0.405	  0.105	 -0.350	  0.095	  0.255	  0.200	  0.485	  0.825	  0.640	  0.285	  0.245	   00:01.154	  0.305	  0.405	  0.100	 -0.355	  0.100	  0.250	  0.170	  0.470	  0.815	  0.625	  0.290	  0.230	   00:01.156	  0.310	  0.380	  0.070	 -0.345	  0.120	  0.225	  0.185	  0.475	  0.820	  0.620	  0.300	  0.235	   00:01.158	  0.300	  0.385	  0.085	 -0.340	  0.105	  0.235	  0.185	  0.490	  0.835	  0.605	  0.325	  0.185	   00:01.160	  0.320	  0.365	  0.045	 -0.340	  0.135	  0.205	  0.200	  0.510	  0.830	  0.590	  0.330	  0.195	   00:01.162	  0.275	  0.355	  0.080	 -0.315	  0.095	  0.215	  0.190	  0.515	  0.800	  0.580	  0.345	  0.200	   00:01.164	  0.305	  0.370	  0.065	 -0.335	  0.120	  0.215	  0.185	  0.470	  0.765	  0.585	  0.275	  0.190	   00:01.166	  0.285	  0.350	  0.065	 -0.315	  0.110	  0.205	  0.185	  0.485	  0.760	  0.590	  0.305	  0.205	   00:01.168	  0.270	  0.335	  0.065	 -0.300	  0.100	  0.200	  0.180	  0.455	  0.730	  0.580	  0.300	  0.190	   00:01.170	  0.280	  0.325	  0.045	 -0.300	  0.115	  0.185	  0.175	  0.510	  0.715	  0.540	  0.320	  0.195	   00:01.172	  0.275	  0.355	  0.080	 -0.315	  0.095	  0.215	  0.185	  0.475	  0.660	  0.530	  0.320	  0.220	   00:01.174	  0.230	  0.320	  0.090	 -0.275	  0.070	  0.205	  0.155	  0.470	  0.640	  0.465	  0.295	  0.200	   00:01.176	  0.235	  0.305	  0.070	 -0.270	  0.080	  0.185	  0.135	  0.430	  0.615	  0.450	  0.240	  0.165	   00:01.178	  0.205	  0.280	  0.075	 -0.240	  0.065	  0.175	  0.160	  0.455	  0.565	  0.440	  0.270	  0.165	   00:01.180	  0.235	  0.290	  0.055	 -0.260	  0.090	  0.170	  0.165	  0.430	  0.540	  0.380	  0.255	  0.145	   00:01.182	  0.180	  0.250	  0.070	 -0.215	  0.055	  0.160	  0.125	  0.380	  0.510	  0.375	  0.230	  0.155	   00:01.184	  0.150	  0.225	  0.075	 -0.185	  0.035	  0.150	  0.125	  0.405	  0.510	  0.365	  0.220	  0.125	   00:01.186	  0.150	  0.200	  0.050	 -0.175	  0.050	  0.125	  0.110	  0.380	  0.445	  0.275	  0.215	  0.125	   00:01.188	  0.110	  0.150	  0.040	 -0.130	  0.035	  0.095	  0.130	  0.355	  0.420	  0.250	  0.195	  0.105	   00:01.190	  0.100	  0.135	  0.035	 -0.115	  0.030	  0.085	  0.095	  0.350	  0.400	  0.200	  0.190	  0.105	   00:01.192	  0.090	  0.135	  0.045	 -0.110	  0.020	  0.090	  0.105	  0.325	  0.345	  0.190	  0.150	  0.075	   00:01.194	  0.055	  0.095	  0.040	 -0.075	  0.005	  0.065	  0.110	  0.310	  0.265	  0.155	  0.125	  0.045	   00:01.196	  0.080	  0.090	  0.010	 -0.085	  0.035	  0.050	  0.090	  0.275	  0.245	  0.110	  0.105	  0.045	   00:01.198	  0.025	  0.025	 0.000	 -0.025	  0.010	  0.010	  0.090	  0.275	  0.215	  0.100	  0.095	  0.015	   00:01.200	  0.005	  0.025	  0.020	 -0.015	 -0.005	  0.020	  0.050	  0.225	  0.150	  0.090	  0.055	  0.015	   00:01.202	  0.005	 -0.020	 -0.025	  0.005	  0.015	 -0.020	  0.070	  0.180	  0.115	  0.035	 0.000	 -0.030	   00:01.204	 -0.030	 -0.015	  0.015	  0.020	 -0.020	 0.000	  0.055	  0.155	  0.035	 -0.055	 -0.045	 -0.030	   00:01.206	 -0.065	 -0.075	 -0.010	  0.070	 -0.025	 -0.040	  0.050	  0.120	  0.025	 -0.090	 -0.010	 -0.025	   00:01.208	 -0.055	 -0.070	 -0.015	  0.060	 -0.020	 -0.040	  0.050	  0.120	 -0.025	 -0.115	 -0.050	 -0.085	   00:01.210	 -0.010	 -0.045	 -0.035	  0.025	  0.010	 -0.040	  0.070	  0.095	 -0.040	 -0.070	 0.000	 -0.085	   00:01.212	 0.000	 -0.005	 -0.005	 0.000	 0.000	 -0.005	  0.065	  0.095	 -0.070	 -0.080	 0.000	 -0.030	   00:01.214	  0.005	  0.010	  0.005	 -0.005	 0.000	  0.005	  0.050	  0.110	 -0.025	 -0.070	 -0.015	 -0.020	   00:01.216	  0.040	  0.040	 0.000	 -0.040	  0.020	  0.020	  0.060	  0.115	 -0.005	 -0.070	 0.000	 -0.005	   00:01.218	  0.035	  0.050	  0.015	 -0.040	  0.010	  0.030	  0.045	  0.145	 -0.020	 -0.045	  0.030	  0.030	   00:01.220	  0.040	  0.055	  0.015	 -0.045	  0.010	  0.035	  0.060	  0.150	 -0.010	 -0.045	  0.025	  0.010	   00:01.222	  0.070	  0.080	  0.010	 -0.075	  0.030	  0.045	  0.090	  0.155	 -0.010	 -0.045	  0.010	 0.000	   00:01.224	  0.060	  0.055	 -0.005	 -0.055	  0.030	  0.025	  0.095	  0.120	 -0.030	 -0.060	  0.015	  0.015	   00:01.226	  0.070	  0.065	 -0.005	 -0.065	  0.035	  0.030	  0.095	  0.135	 -0.020	 -0.045	  0.005	  0.015	   00:01.228	  0.080	  0.070	 -0.010	 -0.075	  0.045	  0.030	  0.080	  0.135	 -0.020	 -0.060	  0.010	  0.010	   00:01.230	  0.070	  0.065	 -0.005	 -0.065	  0.035	  0.030	  0.090	  0.145	 -0.040	 -0.050	  0.010	  0.020	   00:01.232	  0.075	  0.080	  0.005	 -0.075	  0.035	  0.040	  0.090	  0.145	 -0.030	 -0.055	  0.025	  0.015	   00:01.234	  0.075	  0.050	 -0.025	 -0.060	  0.050	  0.010	  0.110	  0.145	 -0.030	 -0.040	  0.030	 0.000	   00:01.236	  0.070	  0.045	 -0.025	 -0.055	  0.045	  0.010	  0.100	  0.135	 -0.020	 -0.045	 0.000	  0.025	   00:01.238	  0.070	  0.070	 0.000	 -0.070	  0.035	  0.035	  0.105	  0.140	 -0.015	 -0.040	  0.005	  0.015	   00:01.240	  0.020	  0.040	  0.020	 -0.030	 0.000	  0.030	  0.075	  0.145	 -0.015	 -0.045	  0.025	  0.015	   00:01.242	  0.020	  0.020	 0.000	 -0.020	  0.010	  0.010	  0.060	  0.150	 -0.015	 -0.045	  0.040	  0.020	   00:01.244	  0.010	  0.010	 0.000	 -0.010	  0.005	  0.005	  0.045	  0.100	 -0.015	 -0.045	  0.050	 -0.010	   00:01.246	 -0.005	 -0.005	 0.000	  0.005	 0.000	 0.000	  0.080	  0.110	 -0.050	 -0.070	 -0.020	 -0.025	   00:01.248	  0.005	 -0.025	 -0.030	  0.010	  0.015	 -0.025	  0.035	  0.090	 -0.065	 -0.070	 -0.020	 -0.035	   00:01.250	 -0.050	 -0.045	  0.005	  0.045	 -0.025	 -0.020	  0.035	  0.065	 -0.035	 -0.110	 -0.040	 -0.035	   00:01.252	 -0.045	 -0.045	 0.000	  0.045	 -0.020	 -0.020	  0.035	  0.080	 -0.110	 -0.115	 -0.040	 -0.070	   00:01.254	 -0.075	 -0.110	 -0.035	  0.090	 -0.020	 -0.070	  0.040	  0.040	 -0.095	 -0.095	 -0.050	 -0.105	   00:01.256	 -0.080	 -0.120	 -0.040	  0.100	 -0.020	 -0.080	  0.015	  0.030	 -0.130	 -0.150	 -0.070	 -0.090	   00:01.258	 -0.130	 -0.160	 -0.030	  0.145	 -0.050	 -0.095	  0.030	  0.010	 -0.120	 -0.170	 -0.125	 -0.110	   00:01.260	 -0.145	 -0.180	 -0.035	  0.160	 -0.055	 -0.105	 0.000	 -0.025	 -0.175	 -0.205	 -0.115	 -0.150	   00:01.262	 -0.125	 -0.195	 -0.070	  0.160	 -0.025	 -0.130	  0.005	 -0.040	 -0.205	 -0.235	 -0.175	 -0.165	   00:01.264	 -0.145	 -0.230	 -0.085	  0.185	 -0.030	 -0.155	 0.000	 -0.045	 -0.240	 -0.285	 -0.190	 -0.180	   00:01.266	 -0.155	 -0.245	 -0.090	  0.200	 -0.030	 -0.165	  0.010	 -0.045	 -0.260	 -0.295	 -0.230	 -0.180	   00:01.268	 -0.165	 -0.245	 -0.080	  0.205	 -0.040	 -0.160	  0.015	 -0.055	 -0.270	 -0.290	 -0.220	 -0.185	   00:01.270	 -0.175	 -0.245	 -0.070	  0.210	 -0.050	 -0.155	 0.000	 -0.065	 -0.255	 -0.290	 -0.245	 -0.165	   00:01.272	 -0.155	 -0.250	 -0.095	  0.200	 -0.030	 -0.170	  0.015	 -0.040	 -0.255	 -0.280	 -0.215	 -0.180	   00:01.274	 -0.170	 -0.240	 -0.070	  0.205	 -0.050	 -0.155	  0.010	 -0.045	 -0.255	 -0.290	 -0.230	 -0.190	   00:01.276	 -0.160	 -0.255	 -0.095	  0.205	 -0.030	 -0.175	  0.005	 -0.035	 -0.255	 -0.255	 -0.195	 -0.165	   00:01.278	 -0.160	 -0.230	 -0.070	  0.195	 -0.045	 -0.150	  0.015	 -0.030	 -0.255	 -0.295	 -0.215	 -0.170	   00:01.280	 -0.160	 -0.240	 -0.080	  0.200	 -0.040	 -0.160	  0.015	 -0.045	 -0.270	 -0.285	 -0.240	 -0.180	   00:01.282	 -0.155	 -0.240	 -0.085	  0.195	 -0.035	 -0.160	 0.000	 -0.050	 -0.275	 -0.310	 -0.220	 -0.185	   00:01.284	 -0.155	 -0.235	 -0.080	  0.195	 -0.035	 -0.155	  0.005	 -0.035	 -0.265	 -0.285	 -0.215	 -0.170	   00:01.286	 -0.185	 -0.265	 -0.080	  0.225	 -0.050	 -0.170	  0.010	 -0.035	 -0.250	 -0.270	 -0.210	 -0.180	   00:01.288	 -0.155	 -0.225	 -0.070	  0.190	 -0.040	 -0.145	  0.005	 -0.045	 -0.255	 -0.295	 -0.225	 -0.165	   00:01.290	 -0.165	 -0.250	 -0.085	  0.205	 -0.040	 -0.165	 0.000	 -0.055	 -0.265	 -0.285	 -0.220	 -0.185	   00:01.292	 -0.165	 -0.235	 -0.070	  0.200	 -0.045	 -0.150	  0.015	 -0.055	 -0.260	 -0.310	 -0.230	 -0.160	   00:01.294	 -0.160	 -0.235	 -0.075	  0.195	 -0.040	 -0.155	 0.000	 -0.030	 -0.270	 -0.295	 -0.205	 -0.185	   00:01.296	 -0.165	 -0.235	 -0.070	  0.200	 -0.045	 -0.150	 0.000	 -0.055	 -0.265	 -0.285	 -0.205	 -0.180	   00:01.298	 -0.160	 -0.210	 -0.050	  0.185	 -0.055	 -0.130	  0.010	 -0.060	 -0.275	 -0.300	 -0.225	 -0.185	   00:01.300	 -0.140	 -0.230	 -0.090	  0.185	 -0.025	 -0.160	  0.015	 -0.060	 -0.265	 -0.280	 -0.225	 -0.175	   00:01.302	 -0.165	 -0.245	 -0.080	  0.205	 -0.040	 -0.160	 -0.005	 -0.050	 -0.250	 -0.310	 -0.225	 -0.180	   00:01.304	 -0.175	 -0.235	 -0.060	  0.205	 -0.055	 -0.145	  0.005	 -0.055	 -0.270	 -0.295	 -0.200	 -0.190	   00:01.306	 -0.180	 -0.250	 -0.070	  0.215	 -0.055	 -0.160	  0.015	 -0.055	 -0.270	 -0.280	 -0.210	 -0.205	   00:01.308	 -0.145	 -0.220	 -0.075	  0.180	 -0.035	 -0.145	 0.000	 -0.040	 -0.250	 -0.285	 -0.215	 -0.180	   00:01.310	 -0.155	 -0.225	 -0.070	  0.190	 -0.040	 -0.145	  0.020	 -0.070	 -0.255	 -0.280	 -0.225	 -0.170	   00:01.312	 -0.165	 -0.230	 -0.065	  0.195	 -0.050	 -0.145	  0.010	 -0.045	 -0.270	 -0.295	 -0.235	 -0.170	   00:01.314	 -0.175	 -0.245	 -0.070	  0.210	 -0.050	 -0.155	  0.010	 -0.070	 -0.280	 -0.305	 -0.245	 -0.185	   00:01.316	 -0.210	 -0.305	 -0.095	  0.255	 -0.055	 -0.200	 0.000	 -0.055	 -0.330	 -0.325	 -0.275	 -0.215	   00:01.318	 -0.260	 -0.350	 -0.090	  0.305	 -0.085	 -0.220	  0.030	 -0.080	 -0.375	 -0.405	 -0.285	 -0.290	   00:01.320	 -0.270	 -0.360	 -0.090	  0.315	 -0.090	 -0.225	  0.055	 -0.075	 -0.370	 -0.455	 -0.360	 -0.350	   00:01.322	 -0.320	 -0.400	 -0.080	  0.360	 -0.120	 -0.240	  0.125	 -0.045	 -0.235	 -0.445	 -0.445	 -0.415	   00:01.324	 -0.250	 -0.300	 -0.050	  0.275	 -0.100	 -0.175	  0.185	  0.135	  0.080	 -0.235	 -0.350	 -0.330	   00:01.326	 -0.155	 -0.180	 -0.025	  0.165	 -0.065	 -0.100	  0.280	  0.320	  0.515	  0.115	 -0.120	 -0.095	   00:01.328	  0.060	  0.175	  0.115	 -0.115	 -0.025	  0.145	  0.350	  0.535	  0.890	  0.650	  0.340	  0.185	   00:01.330	  0.220	  0.440	  0.220	 -0.330	 0.000	  0.330	  0.410	  0.770	  1.310	  1.155	  0.795	  0.585	   00:01.332	  0.465	  0.860	  0.395	 -0.660	  0.035	  0.625	  0.430	  0.815	  1.620	  1.670	  1.075	  0.830	   00:01.334	  0.665	  1.210	  0.545	 -0.935	  0.060	  0.875	  0.380	  0.910	  2.025	  2.155	  1.615	  1.215	   00:01.336	  0.870	  1.500	  0.630	 -1.185	  0.120	  1.065	  0.165	  0.620	  1.860	  2.230	  1.840	  1.400	   00:01.338	  1.030	  1.760	  0.730	 -1.395	  0.150	  1.245	 -0.150	  0.125	  1.405	  2.040	  1.905	  1.585	   00:01.340	  0.935	  1.525	  0.590	 -1.230	  0.170	  1.055	 -0.435	 -0.400	  0.565	  1.430	  1.540	  1.390	   00:01.342	  0.770	  1.275	  0.505	 -1.020	  0.130	  0.890	 -0.740	 -0.940	 -0.260	  0.995	  1.155	  1.160	   00:01.344	  0.545	  0.885	  0.340	 -0.715	  0.100	  0.610	 -0.995	 -1.610	 -0.915	  0.465	  0.890	  0.910	   00:01.346	  0.355	  0.565	  0.210	 -0.460	  0.070	  0.385	 -1.325	 -2.220	 -1.615	 -0.100	  0.495	  0.540	   00:01.348	  0.135	  0.195	  0.060	 -0.165	  0.035	  0.125	 -1.490	 -2.360	 -1.865	 -0.465	  0.095	  0.230	   00:01.350	  0.005	 -0.105	 -0.110	  0.050	  0.055	 -0.105	 -1.375	 -2.255	 -1.895	 -0.870	 -0.265	 -0.145	   00:01.352	 -0.155	 -0.280	 -0.125	  0.215	 -0.015	 -0.200	 -0.925	 -1.685	 -1.430	 -0.905	 -0.380	 -0.170	